timestamp: CODE VALUEBYTE(S)
1764233963.336: 80 FE 58 
1764233963.336: 80 FE 7C 
1764233963.336: 80 FE 04 
1764233963.336: 80 FD B2 
1764233963.336: 80 FE 13 
1764233963.336: 80 FE BB 
1764233963.336: 80 FE D3 
1764233963.336: 80 FE 37 
1764233963.336: 80 FD B0 
1764233963.336: 80 FD E8 
1764233963.336: 80 FE 8E 
1764233963.336: 80 FE C8 
1764233963.336: 80 FE 54 
1764233963.336: 80 FD E3 
1764233963.336: 80 FE 1F 
1764233963.336: 80 FE C5 
1764233963.336: 80 FE FC 
1764233963.336: 80 FE 75 
1764233963.336: 80 FD DE 
1764233963.336: 80 FD F6 
1764233963.336: 80 FE 93 
1764233963.336: 80 FE DF 
1764233963.336: 80 FE 78 
1764233963.336: 80 FD F4 
1764233963.336: 80 FE 16 
1764233963.336: 80 FE BD 
1764233963.336: 80 FF 0F 
1764233963.336: 80 FE 9A 
1764233963.336: 80 FD F2 
1764233963.336: 80 FD EE 
1764233963.336: 80 FE 8E 
1764233963.336: 80 FE FF 
1764233963.336: 80 FE B5 
1764233963.336: 80 FE 29 
1764233963.336: 80 FE 31 
1764233963.336: 80 FE DD 
1764233963.336: 80 FF 5B 
1764233963.336: 80 FF 0C 
1764233963.336: 80 FE 5A 
1764233963.336: 80 FE 2D 
1764233963.336: 80 FE BA 
1764233963.336: 80 FF 44 
1764233963.336: 80 FF 1B 
1764233963.336: 80 FE 8C 
1764233963.336: 80 FE 6E 
1764233963.336: 80 FF 00 
1764233963.336: 80 FF 8C 
1764233963.336: 80 FF 5B 
1764233963.336: 80 FE AD 
1764233963.336: 80 FE 69 
1764233963.336: 80 FE E9 
1764233963.336: 80 FF 88 
1764233963.336: 80 FF 82 
1764233963.336: 80 FE F7 
1764233963.336: 80 FE C0 
1764233963.336: 80 FF 42 
1764233963.336: 80 FF E5 
1764233963.336: 80 FF DE 
1764233963.336: 80 FF 3C 
1764233963.336: 80 FE D9 
1764233963.336: 80 FF 33 
1764233963.336: 80 FF CF 
1764233963.336: 80 FF DF 
1764233963.336: 80 FF 5C 
1764233963.367: 80 FF 0C 
1764233963.367: 80 FF 70 
1764233963.367: 80 00 12 
1764233963.367: 80 00 21 
1764233963.367: 80 FF 8A 
1764233963.367: 80 FF 16 
1764233963.367: 80 FF 5E 
1764233963.367: 80 00 02 
1764233963.367: 80 00 30 
1764233963.367: 80 FF BB 
1764233963.367: 80 FF 5B 
1764233963.367: 80 FF AA 
1764233963.367: 80 00 50 
1764233963.367: 80 00 74 
1764233963.367: 80 FF E0 
1764233963.367: 02 C8 
1764233963.367: 80 FF 50 
1764233963.367: 80 FF 79 
1764233963.367: 80 00 1B 
1764233963.367: 80 00 5B 
1764233963.367: 80 FF EC 
1764233963.367: 80 FF 74 
1764233963.367: 80 FF AA 
1764233963.367: 80 00 57 
1764233963.367: 80 00 9B 
1764233963.367: 80 00 19 
1764233963.367: 80 FF 79 
1764233963.367: 80 FF 8A 
1764233963.367: 80 00 2F 
1764233963.367: 80 00 8C 
1764233963.367: 80 00 27 
1764233963.367: 80 FF 94 
1764233963.367: 80 FF A4 
1764233963.367: 80 00 4E 
1764233963.367: 80 00 B1 
1764233963.367: 80 00 44 
1764233963.367: 80 FF 8B 
1764233963.367: 80 FF 6F 
1764233963.367: 80 00 0A 
1764233963.367: 80 00 8C 
1764233963.367: 80 00 52 
1764233963.367: 80 FF C2 
1764233963.367: 80 FF B9 
1764233963.367: 80 00 5D 
1764233963.367: 80 00 E5 
1764233963.367: 80 00 A3 
1764233963.367: 80 FF F0 
1764233963.367: 80 FF B7 
1764233963.367: 80 00 42 
1764233963.367: 80 00 DB 
1764233963.367: 80 00 C6 
1764233963.367: 80 00 38 
1764233963.367: 80 00 0E 
1764233963.367: 80 00 9B 
1764233963.367: 80 01 39 
1764233963.367: 80 01 23 
1764233963.367: 80 00 81 
1764233963.367: 80 00 33 
1764233963.367: 80 00 A7 
1764233963.367: 80 01 4D 
1764233963.367: 80 01 5B 
1764233963.367: 80 00 E2 
1764233963.399: 80 00 B3 
1764233963.399: 80 01 3D 
1764233963.399: 80 01 F0 
1764233963.399: 80 01 FB 
1764233963.399: 80 01 65 
1764233963.399: 80 01 0D 
1764233963.399: 80 01 80 
1764233963.399: 80 02 43 
1764233963.399: 80 02 73 
1764233963.399: 80 01 F7 
1764233963.399: 80 01 A4 
1764233963.399: 80 02 14 
1764233963.399: 80 02 DC 
1764233963.399: 80 03 0E 
1764233963.399: 80 02 78 
1764233963.399: 80 01 E5 
1764233963.399: 80 02 0E 
1764233963.399: 80 02 AF 
1764233963.399: 80 02 E6 
1764233963.399: 80 02 66 
1764233963.399: 80 01 D7 
1764233963.399: 80 01 ED 
1764233963.399: 80 02 72 
1764233963.399: 80 02 91 
1764233963.399: 80 01 F6 
1764233963.399: 80 01 46 
1764233963.399: 80 01 43 
1764233963.399: 80 01 CD 
1764233963.399: 80 02 10 
1764233963.399: 80 01 A1 
1764233963.399: 80 01 0D 
1764233963.399: 80 01 0F 
1764233963.399: 80 01 90 
1764233963.399: 80 01 C0 
1764233963.399: 80 01 28 
1764233963.399: 80 00 56 
1764233963.399: 80 00 20 
1764233963.399: 80 00 8F 
1764233963.399: 80 00 DB 
1764233963.399: 80 00 77 
1764233963.399: 80 FF D1 
1764233963.399: 80 FF BC 
1764233963.399: 80 00 4B 
1764233963.399: 80 00 B7 
1764233963.399: 80 00 65 
1764233963.399: 80 FF B8 
1764233963.399: 80 FF 92 
1764233963.399: 80 00 24 
1764233963.399: 80 00 B3 
1764233963.399: 80 00 8F 
1764233963.399: 80 FF FE 
1764233963.399: 80 FF DB 
1764233963.399: 80 00 63 
1764233963.399: 80 00 DE 
1764233963.399: 80 00 8D 
1764233963.399: 80 FF B1 
1764233963.399: 80 FF 3B 
1764233963.399: 80 FF 98 
1764233963.399: 80 00 2A 
1764233963.399: 80 00 22 
1764233963.399: 80 FF A2 
1764233963.399: 80 FF 90 
1764233963.399: 80 00 63 
1764233963.570: 80 01 8D 
1764233963.570: 80 02 47 
1764233963.570: 80 02 AE 
1764233963.570: 80 03 9B 
1764233963.570: 80 05 75 
1764233963.570: 80 07 8D 
1764233963.570: 80 09 02 
1764233963.570: 80 09 EC 
1764233963.570: 80 0B 3F 
1764233963.570: 80 0D 6C 
1764233963.570: 80 0F 9D 
1764233963.570: 86 03 0B 
1764233963.570: 03 4D 
1764233963.570: 80 10 97 
1764233963.570: 80 10 28 
1764233963.570: 80 0F 4C 
1764233963.570: 80 0E D5 
1764233963.570: 80 0E 68 
1764233963.570: 80 0D 07 
1764233963.570: 80 0A 74 
1764233963.570: 80 07 98 
1764233963.570: 80 05 71 
1764233963.570: 80 04 01 
1764233963.570: 80 02 9D 
1764233963.570: 80 01 07 
1764233963.570: 80 FF DC 
1764233963.570: 80 FF BB 
1764233963.570: 80 00 5F 
1764233963.570: 80 00 E6 
1764233963.570: 80 00 E2 
1764233963.570: 80 00 C6 
1764233963.570: 80 01 24 
1764233963.570: 80 01 C5 
1764233963.570: 80 01 E2 
1764233963.570: 80 01 2B 
1764233963.570: 80 00 40 
1764233963.570: 80 FF EE 
1764233963.570: 80 00 36 
1764233963.570: 80 00 62 
1764233963.570: 80 00 05 
1764233963.570: 80 FF 91 
1764233963.570: 80 FF B7 
1764233963.570: 80 00 65 
1764233963.570: 80 00 CD 
1764233963.570: 80 00 6E 
1764233963.570: 80 FF BF 
1764233963.570: 80 FF 95 
1764233963.570: 80 00 12 
1764233963.570: 80 00 7E 
1764233963.570: 80 00 48 
1764233963.570: 80 FF C6 
1764233963.570: 80 FF BD 
1764233963.570: 80 00 4A 
1764233963.570: 80 00 B4 
1764233963.570: 80 00 5B 
1764233963.570: 80 FF 95 
1764233963.570: 80 FF 3F 
1764233963.570: 80 FF A0 
1764233963.570: 80 00 19 
1764233963.570: 80 FF FC 
1764233963.570: 80 FF 7B 
1764233963.570: 80 FF 5C 
1764233963.570: 80 FF E7 
1764233963.570: 80 00 7C 
1764233963.570: 80 00 66 
1764233963.570: 80 FF CC 
1764233963.602: 80 FF 83 
1764233963.602: 80 FF ED 
1764233963.602: 80 00 82 
1764233963.602: 80 00 88 
1764233963.602: 80 00 12 
1764233963.602: 80 FF E8 
1764233963.602: 80 00 71 
1764233963.602: 80 01 24 
1764233963.602: 80 01 3B 
1764233963.602: 80 00 BA 
1764233963.602: 80 00 6E 
1764233963.602: 80 00 D8 
1764233963.602: 80 01 86 
1764233963.602: 80 01 A9 
1764233963.602: 80 01 2B 
1764233963.602: 80 00 CC 
1764233963.602: 80 01 17 
1764233963.602: 80 01 A4 
1764233963.602: 80 01 A2 
1764233963.602: 80 00 F1 
1764233963.602: 80 00 55 
1764233963.602: 80 00 78 
1764233963.602: 80 01 0E 
1764233963.602: 80 01 3E 
1764233963.602: 80 00 C1 
1764233963.602: 80 00 3F 
1764233963.602: 80 00 5E 
1764233963.602: 80 00 E9 
1764233963.602: 80 01 12 
1764233963.602: 80 00 88 
1764233963.602: 80 FF E7 
1764233963.602: 80 FF E3 
1764233963.602: 80 00 60 
1764233963.602: 80 00 9D 
1764233963.602: 80 00 3F 
1764233963.602: 80 FF CE 
1764233963.602: 80 FF F7 
1764233963.602: 80 00 99 
1764233963.602: 80 00 EB 
1764233963.602: 80 00 85 
1764233963.602: 80 FF F4 
1764233963.602: 80 00 03 
1764233963.602: 80 00 AD 
1764233963.602: 80 01 24 
1764233963.602: 80 00 E2 
1764233963.602: 80 00 59 
1764233963.602: 80 00 5C 
1764233963.602: 80 00 FB 
1764233963.602: 80 01 70 
1764233963.602: 80 01 25 
1764233963.602: 80 00 81 
1764233963.602: 80 00 63 
1764233963.820: 80 00 FB 
1764233963.820: 80 01 91 
1764233963.820: 80 01 77 
1764233963.820: 80 00 F9 
1764233963.820: 80 00 EB 
1764233963.820: 80 01 8A 
1764233963.820: 80 02 21 
1764233963.820: 80 01 FD 
1764233963.820: 80 01 5C 
1764233963.820: 80 01 1F 
1764233963.820: 80 01 9E 
1764233963.820: 80 02 39 
1764233963.820: 80 02 30 
1764233963.820: 80 01 A6 
1764233963.820: 80 01 6F 
1764233963.820: 80 01 E9 
1764233963.820: 80 02 7C 
1764233963.820: 80 02 65 
1764233963.820: 80 01 BD 
1764233963.820: 80 01 5D 
1764233963.820: 80 01 BB 
1764233963.820: 80 02 55 
1764233963.820: 80 02 5D 
1764233963.820: 80 01 D3 
1764233963.820: 80 01 80 
1764233963.820: 80 01 E1 
1764233963.820: 80 02 7D 
1764233963.820: 80 02 82 
1764233963.820: 80 01 DD 
1764233963.820: 80 01 5A 
1764233963.820: 80 01 92 
1764233963.820: 80 02 28 
1764233963.820: 80 02 4A 
1764233963.820: 80 01 C9 
1764233963.820: 80 01 52 
1764233963.820: 80 01 7D 
1764233963.820: 80 01 FB 
1764233963.820: 80 02 00 
1764233963.820: 80 01 53 
1764233963.820: 80 00 A4 
1764233963.820: 80 00 9E 
1764233963.820: 80 01 0A 
1764233963.820: 80 01 1E 
1764233963.820: 80 00 8F 
1764233963.820: 80 FF F7 
1764233963.820: 80 FF FE 
1764233963.820: 80 00 75 
1764233963.820: 80 00 8A 
1764233963.820: 80 FF E2 
1764233963.820: 80 FF 16 
1764233963.820: 80 FE EA 
1764233963.820: 80 FF 4D 
1764233963.820: 80 FF 76 
1764233963.820: 80 FE EF 
1764233963.820: 80 FE 39 
1764233963.820: 80 FE 14 
1764233963.820: 80 FE 7F 
1764233963.820: 80 FE B2 
1764233963.820: 80 FE 2C 
1764233963.820: 80 FD 5E 
1764233963.820: 80 FD 19 
1764233963.820: 80 FD 75 
1764233963.820: 80 FD BB 
1764233963.820: 80 FD 5C 
1764233963.852: 80 FC B5 
1764233963.852: 80 FC 90 
1764233963.852: 80 FD 09 
1764233963.852: 80 FD 67 
1764233963.852: 80 FD 0A 
1764233963.852: 80 FC 4C 
1764233963.852: 80 FC 07 
1764233963.852: 80 FC 7C 
1764233963.852: 80 FC FE 
1764233963.852: 80 FC DA 
1764233963.852: 80 FC 47 
1764233963.852: 80 FC 17 
1764233963.852: 80 FC 96 
1764233963.852: 80 FD 20 
1764233963.852: 80 FC F9 
1764233963.852: 80 FC 49 
1764233963.852: 80 FB EC 
1764233963.852: 80 FC 4A 
1764233963.852: 80 FC D8 
1764233963.852: 80 FC D3 
1764233963.852: 80 FC 4C 
1764233963.852: 80 FC 0D 
1764233963.852: 80 FC 7F 
1764233963.852: 80 FD 1B 
1764233963.852: 80 FD 14 
1764233963.852: 80 FC 6F 
1764233963.852: 80 FC 03 
1764233963.852: 80 FC 5E 
1764233963.852: 80 FD 0E 
1764233963.852: 80 FD 3D 
1764233963.852: 80 FC CB 
1764233963.852: 80 FC 75 
1764233963.852: 80 FC D1 
1764233963.852: 80 FD 81 
1764233963.852: 80 FD AE 
1764233963.852: 80 FD 28 
1764233963.852: 80 FC A4 
1764233963.852: 80 FC CE 
1764233963.852: 80 FD 68 
1764233963.852: 80 FD A8 
1764233963.852: 80 FD 48 
1764233963.852: 80 FC E6 
1764233963.852: 80 FD 25 
1764233963.852: 80 FD CE 
1764233963.852: 80 FE 14 
1764233963.852: 80 FD A8 
1764233963.852: 80 FD 22 
1764233963.852: 80 FD 3B 
1764233963.852: 80 FD D4 
1764233963.852: 80 FE 25 
1764233963.852: 80 FD C9 
1764233963.852: 80 FD 49 
1764233963.852: 80 FD 5D 
1764233963.852: 80 FD F3 
1764233963.852: 80 FE 41 
1764233963.852: 80 FD D3 
1764233963.852: 80 FD 30 
1764233963.852: 80 FD 26 
1764233963.852: 80 FD BF 
1764233963.852: 80 FE 34 
1764233963.852: 80 FD F7 
1764233963.852: 80 FD 71 
1764233963.852: 80 FD 6B 
1764233963.852: 80 FD FC 
1764233963.883: 80 FE 65 
1764233963.883: 80 FE 11 
1764233963.883: 80 FD 61 
1764233963.883: 80 FD 2D 
1764233963.883: 80 FD A7 
1764233963.883: 80 FE 1F 
1764233963.883: 80 FD F1 
1764233963.883: 80 FD 66 
1764233963.961: 80 FD 4C 
1764233963.961: 80 FD DA 
1764233963.961: 80 FE 61 
1764233963.961: 80 FE 2E 
1764233963.961: 80 FD 7E 
1764233963.961: 80 FD 31 
1764233963.961: 80 FD 9F 
1764233963.961: 80 FE 2C 
1764233963.961: 80 FE 18 
1764233963.961: 80 FD 83 
1764233963.961: 80 FD 3F 
1764233963.961: 80 FD B0 
1764233963.961: 80 FE 45 
1764233963.961: 80 FE 35 
1764233963.961: 80 FD 8E 
1764233963.961: 80 FD 29 
1764233963.961: 80 FD 89 
1764233963.961: 80 FE 34 
1764233963.961: 80 FE 57 
1764233963.961: 80 FD E1 
1764233963.961: 80 FD 96 
1764233963.961: 80 FE 01 
1764233963.961: 80 FE B3 
1764233963.961: 80 FE D3 
1764233963.961: 80 FE 43 
1764233963.961: 80 FD C5 
1764233963.961: 80 FE 00 
1764233963.961: 80 FE A4 
1764233963.961: 80 FE DA 
1764233963.961: 80 FE 6A 
1764233963.961: 80 FE 02 
1764233963.961: 80 FE 45 
1764233963.961: 80 FE EE 
1764233963.961: 80 FF 24 
1764233963.961: 80 FE 9F 
1764233963.961: 80 FE 0A 
1764233963.961: 80 FE 22 
1764233963.961: 80 FE BF 
1764233963.961: 80 FF 0F 
1764233963.961: 80 FE B1 
1764233963.961: 80 FE 36 
1764233963.961: 80 FE 55 
1764233963.961: 80 FE EF 
1764233963.961: 80 FF 3B 
1764233963.961: 80 FE D1 
1764233963.961: 80 FE 3C 
1764233963.961: 80 FE 3E 
1764233963.961: 80 FE CE 
1764233963.961: 80 FF 27 
1764233963.961: 80 FE D3 
1764233963.961: 80 FE 50 
1764233963.961: 80 FE 61 
1764233963.961: 80 FF 02 
1764233963.961: 80 FF 64 
1764233964.305: 80 FE FE 
1764233964.305: 80 FE 4A 
1764233964.305: 80 FE 26 
1764233964.305: 80 FE B7 
1764233964.305: 80 FF 3A 
1764233964.305: 80 FF 0C 
1764233964.305: 80 FE 7F 
1764233964.305: 80 FE 69 
1764233964.305: 80 FE F9 
1764233964.305: 80 FF 7C 
1764233964.305: 80 FF 44 
1764233964.305: 80 FE 99 
1764233964.305: 80 FE 5A 
1764233964.305: 80 FE D2 
1764233964.305: 80 FF 5F 
1764233964.305: 80 FF 49 
1764233964.305: 80 FE C0 
1764233964.305: 80 FE 98 
1764233964.305: 80 FF 24 
1764233964.305: 80 FF C6 
1764233964.305: 80 FF BB 
1764233964.305: 80 FF 25 
1764233964.305: 80 FE E1 
1764233964.305: 80 FF 5E 
1764233964.305: 80 00 0F 
1764233964.305: 80 00 2D 
1764233964.305: 80 FF BD 
1764233964.305: 80 FF 8C 
1764233964.305: 80 00 0F 
1764233964.305: 80 00 BF 
1764233964.305: 80 00 CA 
1764233964.305: 80 00 2D 
1764233964.305: 80 FF C0 
1764233964.305: 80 00 13 
1764233964.305: 80 00 BA 
1764233964.305: 80 00 DB 
1764233964.305: 80 00 56 
1764233964.305: 80 FF EB 
1764233964.305: 80 00 34 
1764233964.305: 80 00 D0 
1764233964.305: 80 00 E4 
1764233964.305: 80 00 41 
1764233964.305: 80 FF A7 
1764233964.305: 80 FF C7 
1764233964.305: 80 00 5F 
1764233964.305: 80 00 96 
1764233964.305: 80 00 1B 
1764233964.305: 80 FF 93 
1764233964.305: 80 FF AA 
1764233964.305: 80 00 2E 
1764233964.305: 80 00 4A 
1764233964.305: 80 FF A9 
1764233964.305: 80 FE EE 
1764233964.305: 80 FE D9 
1764233964.305: 80 FF 50 
1764233964.305: 80 FF 85 
1764233964.305: 80 FF 11 
1764233964.305: 80 FE 81 
1764233964.305: 80 FE 94 
1764233964.305: 80 FF 33 
1764233964.305: 80 FF 8B 
1764233964.305: 80 FF 21 
1764233964.305: 80 FE 7D 
1764233964.305: 80 FE 76 
1764233964.336: 80 FF 17 
1764233964.336: 80 FF 96 
1764233964.336: 80 FF 62 
1764233964.336: 80 FE E2 
1764233964.336: 80 FE E6 
1764233964.336: 80 FF 7C 
1764233964.336: 80 FF DC 
1764233964.336: 80 FF 6F 
1764233964.336: 80 FE A6 
1764233964.336: 80 FE 6D 
1764233964.336: 80 FE FE 
1764233964.336: 80 FF 94 
1764233964.336: 80 FF 7F 
1764233964.336: 80 FF 12 
1764233964.336: 80 FF 37 
1764233964.336: 80 00 39 
1764233964.336: 80 01 6A 
1764233964.336: 80 02 13 
1764233964.336: 80 02 7B 
1764233964.336: 80 03 7F 
1764233964.336: 80 05 60 
1764233964.336: 80 07 58 
1764233964.336: 80 08 A5 
1764233964.336: 80 09 92 
1764233964.336: 80 0B 12 
1764233964.336: 80 0D 5B 
1764233964.336: 86 02 F0 
1764233964.336: 03 50 
1764233964.336: 80 0F 6C 
1764233964.336: 80 10 1F 
1764233964.336: 80 0F 81 
1764233964.336: 80 0E AA 
1764233964.336: 80 0E 49 
1764233964.336: 80 0D CE 
1764233964.336: 80 0C 36 
1764233964.336: 02 C8 
1764233964.336: 80 09 72 
1764233964.336: 80 06 8C 
1764233964.336: 80 04 72 
1764233964.336: 80 03 00 
1764233964.336: 80 01 7C 
1764233964.336: 80 FF C5 
1764233964.336: 80 FE 97 
1764233964.336: 80 FE 87 
1764233964.336: 80 FF 2E 
1764233964.336: 80 FF 9A 
1764233964.336: 80 FF 72 
1764233964.336: 80 FF 4B 
1764233964.336: 80 FF B9 
1764233964.336: 80 00 6F 
1764233964.336: 80 00 93 
1764233964.336: 80 FF DD 
1764233964.336: 80 FE FD 
1764233964.336: 80 FE BA 
1764233964.336: 80 FF 03 
1764233964.336: 80 FF 1D 
1764233964.336: 80 FE AE 
1764233964.336: 80 FE 3C 
1764233964.336: 80 FE 6C 
1764233964.336: 80 FF 10 
1764233964.336: 80 FF 57 
1764233964.336: 80 FE DA 
1764233964.336: 80 FE 31 
1764233964.336: 80 FE 2B 
1764233964.368: 80 FE C6 
1764233964.368: 80 FF 35 
1764233964.368: 80 FE F7 
1764233964.368: 80 FE 7C 
1764233964.368: 80 FE 8C 
1764233964.368: 80 FF 2F 
1764233964.368: 80 FF A3 
1764233964.368: 80 FF 59 
1764233964.368: 80 FE B8 
1764233964.368: 80 FE 92 
1764233964.368: 80 FF 13 
1764233964.368: 80 FF 8F 
1764233964.368: 80 FF 6D 
1764233964.368: 80 FE F8 
1764233964.368: 80 FE F2 
1764233964.368: 80 FF 83 
1764233964.368: 80 00 03 
1764233964.368: 80 FF D1 
1764233964.368: 80 FF 35 
1764233964.368: 80 FF 02 
1764233964.368: 80 FF 7F 
1764233964.368: 80 00 0E 
1764233964.368: 80 00 01 
1764233964.368: 80 FF 83 
1764233964.368: 80 FF 61 
1764233964.368: 80 FF EE 
1764233964.368: 80 00 90 
1764233964.368: 80 00 8C 
1764233964.368: 80 FF FE 
1764233964.368: 80 FF BA 
1764233964.368: 80 00 2F 
1764233964.368: 80 00 DB 
1764233964.368: 80 00 F9 
1764233964.368: 80 00 89 
1764233964.368: 80 00 4B 
1764233964.368: 80 00 B0 
1764233964.368: 80 01 3E 
1764233964.368: 80 01 33 
1764233964.368: 80 00 8E 
1764233964.368: 80 00 18 
1764233964.368: 80 00 58 
1764233964.368: 80 00 E7 
1764233964.368: 80 00 FE 
1764233964.368: 80 00 84 
1764233964.368: 80 00 30 
1764233964.368: 80 00 88 
1764233964.368: 80 01 29 
1764233964.368: 80 01 44 
1764233964.368: 80 00 B5 
1764233964.368: 80 00 38 
1764233964.368: 80 00 71 
1764233964.368: 80 01 18 
1764233964.368: 80 01 5E 
1764233964.368: 80 01 00 
1764233964.368: 80 00 A4 
1764233964.368: 80 00 F0 
1764233964.368: 80 01 A9 
1764233964.368: 80 01 FC 
1764233964.368: 80 01 97 
1764233964.368: 80 01 1A 
1764233964.368: 80 01 41 
1764233964.368: 80 01 EF 
1764233964.368: 80 02 5A 
1764233964.368: 80 02 16 
1764233964.399: 80 01 AA 
1764233964.399: 80 01 D4 
1764233964.399: 80 02 86 
1764233964.524: 80 02 F2 
1764233964.524: 80 02 9D 
1764233964.524: 80 02 02 
1764233964.524: 80 01 F4 
1764233964.524: 80 02 8B 
1764233964.524: 80 03 0B 
1764233964.524: 80 02 E5 
1764233964.524: 80 02 76 
1764233964.524: 80 02 80 
1764233964.524: 80 03 1E 
1764233964.524: 80 03 99 
1764233964.524: 80 03 5B 
1764233964.524: 80 02 C2 
1764233964.524: 80 02 A5 
1764233964.524: 80 03 3A 
1764233964.524: 80 03 CC 
1764233964.524: 80 03 B0 
1764233964.524: 80 03 26 
1764233964.524: 80 03 04 
1764233964.524: 80 03 90 
1764233964.524: 80 04 1E 
1764233964.524: 80 03 F0 
1764233964.524: 80 03 38 
1764233964.524: 80 02 D8 
1764233964.524: 80 03 37 
1764233964.524: 80 03 C1 
1764233964.524: 80 03 B1 
1764233964.524: 80 03 1E 
1764233964.524: 80 02 D6 
1764233964.524: 80 03 40 
1764233964.524: 80 03 CE 
1764233964.524: 80 03 B4 
1764233964.524: 80 02 FF 
1764233964.524: 80 02 87 
1764233964.524: 80 02 CC 
1764233964.524: 80 03 51 
1764233964.524: 80 03 45 
1764233964.524: 80 02 9E 
1764233964.524: 80 02 24 
1764233964.524: 80 02 60 
1764233964.524: 80 02 E2 
1764233964.524: 80 02 D1 
1764233964.524: 80 02 12 
1764233964.524: 80 01 6A 
1764233964.524: 80 01 7C 
1764233964.524: 80 01 F5 
1764233964.524: 80 01 FE 
1764233964.524: 80 01 5D 
1764233964.524: 80 00 C0 
1764233964.524: 80 00 CC 
1764233964.524: 80 01 41 
1764233964.524: 80 01 4E 
1764233964.524: 80 00 AB 
1764233964.524: 80 FF FA 
1764233964.524: 80 FF EE 
1764233964.524: 80 00 61 
1764233964.524: 80 00 86 
1764233964.524: 80 00 00 
1764233964.524: 80 FF 5A 
1764233964.524: 80 FF 4B 
1764233964.524: 80 FF B7 
1764233964.524: 80 FF D6 
1764233964.524: 80 FF 3E 
1764233964.524: 80 FE 7A 
1764233964.555: 80 FE 52 
1764233964.555: 80 FE C5 
1764233964.555: 80 FF 11 
1764233964.555: 80 FE B4 
1764233964.555: 80 FE 1D 
1764233964.555: 80 FE 10 
1764233964.555: 80 FE 94 
1764233964.555: 80 FE E2 
1764233964.555: 80 FE 6D 
1764233964.555: 80 FD A3 
1764233964.555: 80 FD 61 
1764233964.555: 80 FD D2 
1764233964.555: 80 FE 3F 
1764233964.555: 80 FE 07 
1764233964.555: 80 FD 75 
1764233964.555: 80 FD 58 
1764233964.555: 80 FD E3 
1764233964.555: 80 FE 66 
1764233964.555: 80 FE 36 
1764233964.555: 80 FD 96 
1764233964.555: 80 FD 5A 
1764233964.555: 80 FD CC 
1764233964.555: 80 FE 4B 
1764233964.555: 80 FE 23 
1764233964.555: 80 FD 86 
1764233964.555: 80 FD 47 
1764233964.555: 80 FD BA 
1764233964.555: 80 FE 41 
1764233964.555: 80 FE 1A 
1764233964.555: 80 FD 64 
1764233964.555: 80 FC FA 
1764233964.555: 80 FD 53 
1764233964.555: 80 FD EB 
1764233964.555: 80 FD F7 
1764233964.555: 80 FD 74 
1764233964.555: 80 FD 25 
1764233964.555: 80 FD 86 
1764233964.555: 80 FE 1D 
1764233964.555: 80 FE 22 
1764233964.555: 80 FD 87 
1764233964.555: 80 FD 15 
1764233964.555: 80 FD 5C 
1764233964.555: 80 FD FA 
1764233964.555: 80 FE 19 
1764233964.555: 80 FD 94 
1764233964.555: 80 FD 25 
1764233964.555: 80 FD 67 
1764233964.555: 80 FE 01 
1764233964.634: 80 FE 1A 
1764233964.634: 80 FD 7B 
1764233964.634: 80 FC E1 
1764233964.634: 80 FD 02 
1764233964.634: 80 FD A0 
1764233964.634: 80 FD DE 
1764233964.634: 80 FD 6C 
1764233964.634: 80 FC F0 
1764233964.634: 80 FD 21 
1764233964.634: 80 FD C7 
1764233964.634: 80 FE 04 
1764233964.634: 80 FD 79 
1764233964.634: 80 FC CF 
1764233964.634: 80 FC D6 
1764233964.634: 80 FD 78 
1764233964.634: 80 FD D7 
1764233964.634: 80 FD 7C 
1764233964.634: 80 FC F5 
1764233964.634: 80 FD 11 
1764233964.634: 80 FD C7 
1764233964.634: 80 FE 3C 
1764233964.634: 80 FD E7 
1764233964.634: 80 FD 49 
1764233964.634: 80 FD 40 
1764233964.634: 80 FD E0 
1764233964.634: 80 FE 5E 
1764233964.634: 80 FE 20 
1764233964.634: 80 FD 8D 
1764233964.634: 80 FD 7F 
1764233964.634: 80 FE 1C 
1764233964.634: 80 FE A1 
1764233964.634: 80 FE 64 
1764233964.634: 80 FD BF 
1764233964.634: 80 FD 97 
1764233964.634: 80 FE 32 
1764233964.634: 80 FE DC 
1764233964.634: 80 FE DC 
1764233964.634: 80 FE 69 
1764233964.634: 80 FE 58 
1764233964.634: 80 FE F3 
1764233964.634: 80 FF 92 
1764233964.634: 80 FF 76 
1764233964.634: 80 FE CC 
1764233964.634: 80 FE 73 
1764233964.634: 80 FE D7 
1764233964.634: 80 FF 67 
1764233964.634: 80 FF 64 
1764233964.822: 80 FE E1 
1764233964.822: 80 FE AA 
1764233964.822: 80 FF 24 
1764233964.822: 80 FF BF 
1764233964.822: 80 FF B3 
1764233964.822: 80 FF 10 
1764233964.822: 80 FE AD 
1764233964.822: 80 FF 0B 
1764233964.822: 80 FF AB 
1764233964.822: 80 FF BE 
1764233964.822: 80 FF 39 
1764233964.822: 80 FE E3 
1764233964.822: 80 FF 40 
1764233964.822: 80 FF DF 
1764233964.822: 80 FF EB 
1764233964.822: 80 FF 4B 
1764233964.822: 80 FE C7 
1764233964.822: 80 FE FE 
1764233964.822: 80 FF 96 
1764233964.822: 80 FF BB 
1764233964.822: 80 FF 41 
1764233964.822: 80 FE DA 
1764233964.822: 80 FF 26 
1764233964.822: 80 FF D2 
1764233964.822: 80 00 05 
1764233964.822: 80 FF 80 
1764233964.822: 80 FE FA 
1764233964.822: 80 FF 29 
1764233964.822: 80 FF D8 
1764233964.822: 80 00 2E 
1764233964.822: 80 FF D3 
1764233964.822: 80 FF 66 
1764233964.822: 80 FF A3 
1764233964.822: 80 00 5D 
1764233964.822: 80 00 B6 
1764233964.822: 80 00 44 
1764233964.822: 80 FF A5 
1764233964.822: 80 FF B1 
1764233964.822: 80 00 60 
1764233964.822: 80 00 D4 
1764233964.822: 80 00 84 
1764233964.822: 80 FF EE 
1764233964.822: 80 FF ED 
1764233964.822: 80 00 8D 
1764233964.822: 80 00 FB 
1764233964.822: 80 00 97 
1764233964.822: 80 FF D1 
1764233964.822: 80 FF 91 
1764233964.822: 80 00 0B 
1764233964.822: 80 00 82 
1764233964.822: 80 00 49 
1764233964.822: 80 FF A9 
1764233964.822: 80 FF 7B 
1764233964.822: 80 FF FC 
1764233964.822: 80 00 7B 
1764233964.822: 80 00 41 
1764233964.822: 80 FF 89 
1764233964.822: 80 FF 2E 
1764233964.822: 80 FF 87 
1764233964.822: 80 FF F7 
1764233964.822: 80 FF C8 
1764233964.822: 80 FF 23 
1764233964.822: 80 FE D5 
1764233964.822: 80 FF 3A 
1764233964.853: 80 FF BB 
1764233964.853: 80 FF 9A 
1764233964.853: 80 FE F3 
1764233964.853: 80 FE 9B 
1764233964.853: 80 FF 02 
1764233964.853: 80 FF A2 
1764233964.853: 80 FF B3 
1764233964.853: 80 FF 38 
1764233964.853: 80 FE F5 
1764233964.853: 80 FF 61 
1764233964.853: 80 00 05 
1764233964.853: 80 00 17 
1764233964.853: 80 FF 8E 
1764233964.853: 80 FF 34 
1764233964.853: 80 FF 96 
1764233964.853: 80 00 49 
1764233964.853: 80 00 77 
1764233964.853: 80 FF F7 
1764233964.853: 80 FF 85 
1764233964.853: 80 FF C3 
1764233964.853: 80 00 63 
1764233964.978: 80 00 8F 
1764233964.978: 80 00 0C 
1764233964.978: 80 FF 99 
1764233964.978: 80 FF F8 
1764233964.978: 80 00 FC 
1764233964.978: 80 01 D9 
1764233964.978: 80 02 44 
1764233964.978: 80 02 DD 
1764233964.978: 80 04 50 
1764233964.978: 80 06 50 
1764233964.978: 80 07 EA 
1764233964.978: 80 08 C0 
1764233964.978: 80 09 94 
1764233964.978: 80 0B 4B 
1764233964.978: 80 0D B0 
1764233964.978: 80 0F 91 
1764233964.978: 86 02 C3 
1764233964.978: 03 55 
1764233964.978: 80 10 1F 
1764233964.978: 80 0F CC 
1764233964.978: 80 0F 8C 
1764233964.978: 80 0F 7E 
1764233964.978: 80 0E C9 
1764233964.978: 80 0C C5 
1764233964.978: 80 09 EC 
1764233964.978: 80 07 4E 
1764233964.978: 80 05 5A 
1764233964.978: 80 03 96 
1764233964.978: 80 01 95 
1764233964.978: 80 FF C6 
1764233964.978: 80 FE F4 
1764233964.978: 80 FF 28 
1764233964.978: 80 FF 8A 
1764233964.978: 80 FF 61 
1764233964.978: 80 FE F5 
1764233964.978: 80 FF 10 
1764233964.978: 80 FF D9 
1764233964.978: 80 00 86 
1764233964.978: 80 00 5C 
1764233964.978: 80 FF 9D 
1764233964.978: 80 FF 2B 
1764233964.978: 80 FF 5A 
1764233964.978: 80 FF 95 
1764233964.978: 80 FF 34 
1764233964.978: 80 FE 70 
1764233964.978: 80 FE 21 
1764233964.978: 80 FE 98 
1764233964.978: 80 FF 33 
1764233964.978: 80 FF 2C 
1764233964.978: 80 FE A2 
1764233964.978: 80 FE 67 
1764233964.978: 80 FE DE 
1764233964.978: 80 FF 72 
1764233964.978: 80 FF 5D 
1764233964.978: 80 FE B6 
1764233964.978: 80 FE 5A 
1764233964.978: 80 FE C5 
1764233964.978: 80 FF 70 
1764233964.978: 80 FF 85 
1764233964.978: 80 FE FC 
1764233964.978: 80 FE A8 
1764233964.978: 80 FF 12 
1764233964.978: 80 FF C3 
1764233964.978: 80 FF DC 
1764233964.978: 80 FF 40 
1764233964.978: 80 FE C1 
1764233965.009: 80 FF 08 
1764233965.009: 80 FF B7 
1764233965.009: 80 FF EE 
1764233965.009: 80 FF 6F 
1764233965.009: 80 FE F1 
1764233965.009: 80 FF 24 
1764233965.009: 80 FF C5 
1764233965.009: 80 FF F9 
1764233965.009: 80 FF 74 
1764233965.009: 80 FE E1 
1764233965.009: 80 FE FD 
1764233965.009: 80 FF A1 
1764233965.009: 80 FF FC 
1764233965.009: 80 FF AE 
1764233965.009: 80 FF 44 
1764233965.009: 80 FF 70 
1764233965.009: 80 00 10 
1764233965.009: 80 00 54 
1764233965.009: 80 FF D7 
1764233965.009: 80 FF 2D 
1764233965.009: 80 FF 21 
1764233965.009: 80 FF AA 
1764233965.119: 80 FF FB 
1764233965.119: 80 FF 9A 
1764233965.119: 80 FF 03 
1764233965.119: 80 FE FF 
1764233965.119: 80 FF 94 
1764233965.119: 80 FF F9 
1764233965.119: 80 FF A0 
1764233965.119: 80 FE FB 
1764233965.119: 80 FE DD 
1764233965.119: 80 FF 67 
1764233965.119: 80 FF DC 
1764233965.119: 80 FF A5 
1764233965.119: 80 FF 1D 
1764233965.119: 80 FF 10 
1764233965.119: 80 FF A1 
1764233965.119: 80 00 1B 
1764233965.119: 80 FF E2 
1764233965.119: 80 FF 4C 
1764233965.119: 80 FF 32 
1764233965.119: 80 FF CE 
1764233965.119: 80 00 70 
1764233965.119: 80 00 68 
1764233965.119: 80 FF F5 
1764233965.119: 80 FF EB 
1764233965.119: 80 00 90 
1764233965.119: 80 01 3C 
1764233965.119: 80 01 2F 
1764233965.119: 80 00 9A 
1764233965.119: 80 00 5D 
1764233965.119: 80 00 E5 
1764233965.119: 80 01 9F 
1764233965.119: 80 01 BD 
1764233965.119: 80 01 49 
1764233965.119: 80 01 12 
1764233965.119: 80 01 93 
1764233965.119: 80 02 48 
1764233965.119: 80 02 5C 
1764233965.119: 80 01 C7 
1764233965.119: 80 01 5C 
1764233965.119: 80 01 B4 
1764233965.119: 80 02 6B 
1764233965.119: 80 02 A6 
1764233965.119: 80 02 39 
1764233965.119: 80 01 DC 
1764233965.119: 80 02 30 
1764233965.119: 80 02 E4 
1764233965.119: 80 03 20 
1764233965.119: 80 02 A8 
1764233965.119: 80 02 2D 
1764233965.119: 80 02 5F 
1764233965.119: 80 03 05 
1764233965.119: 80 03 4E 
1764233965.119: 80 02 EB 
1764233965.119: 80 02 76 
1764233965.119: 80 02 9D 
1764233965.119: 80 03 34 
1764233965.119: 80 03 6C 
1764233965.119: 80 02 EE 
1764233965.119: 80 02 51 
1764233965.119: 80 02 53 
1764233965.119: 80 02 E1 
1764233965.119: 80 03 36 
1764233965.119: 80 02 E2 
1764233965.119: 80 02 61 
1764233965.150: 80 02 68 
1764233965.150: 80 02 EA 
1764233965.150: 80 03 28 
1764233965.150: 80 02 AD 
1764233965.150: 80 01 F5 
1764233965.150: 80 01 C9 
1764233965.150: 80 02 36 
1764233965.150: 80 02 81 
1764233965.181: 80 02 22 
1764233965.181: 80 01 7A 
1764233965.181: 80 01 51 
1764233965.181: 80 01 BC 
1764233965.181: 80 02 02 
1764233965.181: 80 01 8C 
1764233965.181: 80 00 B6 
1764233965.181: 80 00 54 
1764233965.181: 80 00 9B 
1764233965.181: 80 00 E3 
1764233965.181: 80 00 8C 
1764233965.181: 80 FF DA 
1764233965.181: 80 FF 97 
1764233965.181: 80 FF F6 
1764233965.181: 80 00 49 
1764233965.181: 02 C8 
1764233965.181: 80 FF E5 
1764233965.181: 80 FF 11 
1764233965.181: 80 FE AA 
1764233965.181: 80 FF 04 
1764233965.181: 80 FF 76 
1764233965.181: 80 FF 41 
1764233965.181: 80 FE 8B 
1764233965.181: 80 FE 2E 
1764233965.181: 80 FE 91 
1764233965.181: 80 FF 17 
1764233965.181: 80 FE F1 
1764233965.181: 80 FE 2B 
1764233965.181: 80 FD A2 
1764233965.181: 80 FD DC 
1764233965.181: 80 FE 61 
1764233965.181: 80 FE 61 
1764233965.181: 80 FD CD 
1764233965.181: 80 FD 66 
1764233965.212: 80 FD AF 
1764233965.212: 80 FE 3D 
1764233965.212: 80 FE 3C 
1764233965.212: 80 FD 91 
1764233965.212: 80 FD 04 
1764233965.212: 80 FD 35 
1764233965.212: 80 FD D1 
1764233965.212: 80 FD FF 
1764233965.212: 80 FD 88 
1764233965.400: 80 FD 1A 
1764233965.431: 80 FD 5B 
1764233965.431: 80 FE 04 
1764233965.431: 80 FE 3E 
1764233965.431: 80 FD C5 
1764233965.431: 80 FD 44 
1764233965.431: 80 FD 75 
1764233965.431: 80 FE 29 
1764233965.431: 80 FE 86 
1764233965.431: 80 FE 2E 
1764233965.431: 80 FD B6 
1764233965.431: 80 FD DD 
1764233965.431: 80 FE 83 
1764233965.431: 80 FE D3 
1764233965.431: 80 FE 5F 
1764233965.431: 80 FD B8 
1764233965.431: 80 FD B0 
1764233965.431: 80 FE 48 
1764233965.431: 80 FE B8 
1764233965.431: 80 FE 79 
1764233965.431: 80 FE 01 
1764233965.431: 80 FE 15 
1764233965.431: 80 FE BD 
1764233965.431: 80 FF 2C 
1764233965.431: 80 FE D4 
1764233965.431: 80 FE 26 
1764233965.431: 80 FE 03 
1764233965.431: 80 FE 95 
1764233965.431: 80 FF 19 
1764233965.431: 80 FE E5 
1764233965.431: 80 FE 49 
1764233965.431: 80 FE 1F 
1764233965.431: 80 FE A4 
1764233965.431: 80 FF 28 
1764233965.431: 80 FE F8 
1764233965.431: 80 FE 50 
1764233965.431: 80 FE 07 
1764233965.431: 80 FE 71 
1764233965.431: 80 FE F4 
1764233965.431: 80 FE DD 
1764233965.431: 80 FE 54 
1764233965.431: 80 FE 23 
1764233965.431: 80 FE 9A 
1764233965.431: 80 FF 1C 
1764233965.431: 80 FE F0 
1764233965.431: 80 FE 39 
1764233965.431: 80 FD D0 
1764233965.431: 80 FE 29 
1764233965.431: 80 FE BA 
1764233965.431: 80 FE BA 
1764233965.431: 80 FE 27 
1764233965.431: 80 FD CC 
1764233965.431: 80 FE 26 
1764233965.431: 80 FE BD 
1764233965.431: 80 FE C3 
1764233965.431: 80 FE 25 
1764233965.431: 80 FD A9 
1764233965.431: 80 FD E4 
1764233965.431: 80 FE 76 
1764233965.431: 80 FE 91 
1764233965.431: 80 FE 0F 
1764233965.431: 80 FD A7 
1764233965.431: 80 FD F2 
1764233965.431: 80 FE 97 
1764233965.431: 80 FE BF 
1764233965.462: 80 FE 34 
1764233965.462: 80 FD AE 
1764233965.462: 80 FD E0 
1764233965.462: 80 FE 8B 
1764233965.462: 80 FE D5 
1764233965.462: 80 FE 6D 
1764233965.462: 80 FD F4 
1764233965.462: 80 FE 20 
1764233965.462: 80 FE BE 
1764233965.462: 80 FE F9 
1764233965.462: 80 FE 74 
1764233965.462: 80 FD D1 
1764233965.462: 80 FD DC 
1764233965.462: 80 FE 7D 
1764233965.462: 80 FE E1 
1764233965.462: 80 FE 92 
1764233965.462: 80 FE 17 
1764233965.462: 80 FE 37 
1764233965.462: 80 FE E4 
1764233965.462: 80 FF 4D 
1764233965.462: 80 FE F1 
1764233965.462: 80 FE 4E 
1764233965.462: 80 FE 3E 
1764233965.462: 80 FE D4 
1764233965.462: 80 FF 49 
1764233965.462: 80 FF 0C 
1764233965.462: 80 FE 86 
1764233965.462: 80 FE 85 
1764233965.462: 80 FF 20 
1764233965.462: 80 FF 92 
1764233965.462: 80 FF 3B 
1764233965.462: 80 FE 7C 
1764233965.462: 80 FE 3C 
1764233965.462: 80 FE B4 
1764233965.462: 80 FF 31 
1764233965.462: 80 FE FF 
1764233965.462: 80 FE 63 
1764233965.462: 80 FE 37 
1764233965.462: 80 FE C4 
1764233965.462: 80 FF 5A 
1764233965.462: 80 FF 36 
1764233965.462: 80 FE 88 
1764233965.462: 80 FE 33 
1764233965.462: 80 FE A0 
1764233965.494: 80 FF 36 
1764233965.494: 80 FF 2F 
1764233965.494: 80 FE 9D 
1764233965.494: 80 FE 54 
1764233965.494: 80 FE C4 
1764233965.494: 80 FF 5D 
1764233965.494: 80 FF 51 
1764233965.494: 80 FE A5 
1764233965.494: 80 FE 35 
1764233965.494: 80 FE 8A 
1764233965.494: 80 FF 2E 
1764233965.494: 80 FF 46 
1764233965.494: 80 FE BF 
1764233965.494: 80 FE 60 
1764233965.494: 80 FE BB 
1764233965.494: 80 FF 66 
1764233965.494: 80 FF 83 
1764233965.494: 80 FE ED 
1764233965.494: 80 FE 70 
1764233965.494: 80 FE B6 
1764233965.494: 80 FF 6B 
1764233965.494: 80 FF B2 
1764233965.494: 80 FF 4C 
1764233965.494: 80 FE EF 
1764233965.494: 80 FF 45 
1764233965.494: 80 00 07 
1764233965.494: 80 00 52 
1764233965.494: 80 FF DB 
1764233965.494: 80 FF 52 
1764233965.494: 80 FF 7D 
1764233965.494: 80 00 33 
1764233965.494: 80 00 9A 
1764233965.494: 80 00 50 
1764233965.494: 80 FF E8 
1764233965.494: 80 00 1F 
1764233965.494: 80 00 D3 
1764233965.494: 80 01 30 
1764233965.494: 80 00 C8 
1764233965.494: 80 00 2F 
1764233965.525: 80 00 33 
1764233965.525: 80 00 C9 
1764233965.525: 80 01 22 
1764233965.525: 80 00 BE 
1764233965.525: 80 00 1B 
1764233965.525: 80 00 0A 
1764233965.525: 80 00 95 
1764233965.525: 80 00 EE 
1764233965.525: 80 00 81 
1764233965.666: 80 FF B9 
1764233965.666: 80 FF 79 
1764233965.666: 80 FF F2 
1764233965.666: 80 00 6B 
1764233965.666: 80 00 37 
1764233965.666: 80 FF 9C 
1764233965.666: 80 FF 68 
1764233965.666: 80 FF D2 
1764233965.666: 80 00 31 
1764233965.666: 80 FF D5 
1764233965.666: 80 FE FF 
1764233965.666: 80 FE 8E 
1764233965.666: 80 FE DC 
1764233965.666: 80 FF 4E 
1764233965.666: 80 FF 2A 
1764233965.666: 80 FE 90 
1764233965.666: 80 FE 50 
1764233965.666: 80 FE C5 
1764233965.666: 80 FF 5C 
1764233965.666: 80 FF 50 
1764233965.666: 80 FE B5 
1764233965.666: 80 FE 61 
1764233965.666: 80 FE C7 
1764233965.666: 80 FF 68 
1764233965.666: 80 FF 7C 
1764233965.666: 80 FF 05 
1764233965.666: 80 FE C8 
1764233965.666: 80 FF 34 
1764233965.666: 80 FF C1 
1764233965.666: 80 FF 9F 
1764233965.666: 80 FE D8 
1764233965.666: 80 FE 4F 
1764233965.666: 80 FE 9A 
1764233965.666: 80 FF 42 
1764233965.666: 80 FF 6C 
1764233965.666: 80 FF 04 
1764233965.666: 80 FE E4 
1764233965.666: 80 FF B5 
1764233965.666: 80 01 15 
1764233965.666: 80 02 2A 
1764233965.666: 80 02 C2 
1764233965.666: 80 03 95 
1764233965.666: 80 05 33 
1764233965.666: 80 07 3F 
1764233965.666: 80 08 EA 
1764233965.666: 80 0A 11 
1764233965.666: 80 0B 65 
1764233965.666: 80 0D 54 
1764233965.666: 86 02 F8 
1764233965.666: 03 4F 
1764233965.666: 80 0F 3F 
1764233965.666: 80 10 12 
1764233965.666: 80 0F 87 
1764233965.666: 80 0E 78 
1764233965.666: 80 0D B7 
1764233965.666: 80 0D 04 
1764233965.666: 80 0B 6F 
1764233965.666: 80 08 AB 
1764233965.666: 80 05 98 
1764233965.666: 80 03 55 
1764233965.666: 80 02 05 
1764233965.666: 80 00 E7 
1764233965.666: 80 FF 7A 
1764233965.666: 80 FE 3E 
1764233965.666: 80 FD FD 
1764233965.666: 80 FE AF 
1764233965.697: 80 FF 6D 
1764233965.697: 80 FF 83 
1764233965.697: 80 FF 3C 
1764233965.697: 80 FF 57 
1764233965.697: 80 FF E8 
1764233965.697: 80 00 30 
1764233965.697: 80 FF 9D 
1764233965.697: 80 FE 9A 
1764233965.697: 80 FE 1A 
1764233965.697: 80 FE 68 
1764233965.697: 80 FE DA 
1764233965.697: 80 FE BE 
1764233965.697: 80 FE 4B 
1764233965.697: 80 FE 46 
1764233965.697: 80 FE E5 
1764233965.697: 80 FF 78 
1764233965.822: 80 FF 49 
1764233965.822: 80 FE 94 
1764233965.822: 80 FE 3A 
1764233965.822: 80 FE 9F 
1764233965.822: 80 FF 2D 
1764233965.822: 80 FF 23 
1764233965.822: 80 FE 96 
1764233965.822: 80 FE 56 
1764233965.822: 80 FE C9 
1764233965.822: 80 FF 5E 
1764233965.822: 80 FF 47 
1764233965.822: 80 FE 8C 
1764233965.822: 80 FE 0A 
1764233965.822: 80 FE 53 
1764233965.822: 80 FE F8 
1764233965.822: 80 FF 26 
1764233965.822: 80 FE BA 
1764233965.822: 80 FE 6D 
1764233965.822: 80 FE CC 
1764233965.822: 80 FF 78 
1764233965.822: 80 FF A1 
1764233965.822: 80 FF 1C 
1764233965.822: 80 FE A4 
1764233965.822: 80 FE DD 
1764233965.822: 80 FF 82 
1764233965.822: 80 FF C5 
1764233965.822: 80 FF 66 
1764233965.822: 80 FF 0D 
1764233965.822: 80 FF 60 
1764233965.822: 80 00 1D 
1764233965.822: 80 00 6F 
1764233965.822: 80 00 06 
1764233965.822: 80 FF 86 
1764233965.822: 80 FF AC 
1764233965.822: 80 00 55 
1764233965.822: 80 00 AF 
1764233965.822: 80 00 58 
1764233965.822: 80 FF DF 
1764233965.822: 80 00 02 
1764233965.822: 80 00 AA 
1764233965.822: 80 01 06 
1764233965.822: 80 00 A2 
1764233965.822: 80 00 07 
1764233965.822: 80 00 04 
1764233965.822: 80 00 9F 
1764233965.822: 80 01 14 
1764233965.822: 80 00 DA 
1764233965.822: 80 00 5E 
1764233965.822: 80 00 67 
1764233965.822: 80 01 02 
1764233965.822: 80 01 73 
1764233965.822: 80 01 2D 
1764233965.822: 80 00 9B 
1764233965.822: 80 00 91 
1764233965.822: 80 01 33 
1764233965.822: 80 01 C9 
1764233965.822: 80 01 B4 
1764233965.822: 80 01 44 
1764233965.822: 80 01 48 
1764233965.822: 80 01 EF 
1764233965.822: 80 02 86 
1764233965.822: 80 02 60 
1764233965.822: 80 01 C8 
1764233965.822: 80 01 9F 
1764233965.853: 80 02 38 
1764233965.853: 80 02 ED 
1764233965.853: 80 03 00 
1764233965.853: 80 02 96 
1764233965.853: 80 02 80 
1764233965.853: 80 03 1A 
1764233965.853: 80 03 CB 
1764233965.853: 80 03 D0 
1764233965.853: 80 03 41 
1764233965.853: 80 02 F8 
1764233965.853: 80 03 6C 
1764233965.853: 80 04 1C 
1764233965.853: 80 04 3D 
1764233965.853: 80 03 CD 
1764233965.853: 80 03 93 
1764233965.853: 80 04 0E 
1764233965.853: 80 04 C0 
1764233965.853: 80 04 D8 
1764233965.853: 80 04 44 
1764233965.853: 80 03 D3 
1764233965.853: 80 04 1D 
1764233965.853: 80 04 C3 
1764233965.853: 80 04 F0 
1764233965.853: 80 04 7A 
1764233965.853: 80 04 17 
1764233965.853: 80 04 5F 
1764233965.916: 80 04 FE 
1764233965.916: 80 05 1E 
1764233965.916: 80 04 8C 
1764233965.916: 80 04 01 
1764233965.916: 80 04 2D 
1764233965.916: 80 04 D0 
1764233965.916: 80 05 11 
1764233965.916: 80 04 A0 
1764233965.916: 80 04 22 
1764233965.916: 80 04 4D 
1764233965.916: 80 04 EF 
1764233965.916: 80 05 2B 
1764233965.916: 80 04 9D 
1764233965.916: 80 03 E2 
1764233965.916: 80 03 C9 
1764233965.916: 80 04 48 
1764233965.916: 80 04 93 
1764233965.916: 80 04 33 
1764233965.916: 80 03 A2 
1764233965.916: 80 03 A2 
1764233965.916: 80 04 2B 
1764233965.916: 80 04 78 
1764233965.916: 80 04 07 
1764233965.916: 80 03 4E 
1764233965.916: 80 03 1C 
1764233965.916: 80 03 88 
1764233965.916: 80 03 D3 
1764233965.916: 80 03 6B 
1764233965.916: 80 02 B3 
1764233965.916: 80 02 75 
1764233965.916: 80 02 D4 
1764233965.916: 80 03 15 
1764233965.916: 80 02 9C 
1764233965.916: 80 01 C0 
1764233965.916: 80 01 5D 
1764233965.916: 80 01 B2 
1764233965.916: 80 02 10 
1764233965.916: 80 01 C8 
1764233965.916: 80 01 10 
1764233966.072: 80 00 B8 
1764233966.072: 80 01 0A 
1764233966.072: 80 01 64 
1764233966.072: 80 01 11 
1764233966.072: 80 00 40 
1764233966.072: 80 FF CA 
1764233966.072: 80 00 11 
1764233966.072: 80 00 83 
1764233966.072: 80 00 61 
1764233966.072: 80 FF BE 
1764233966.072: 80 FF 68 
1764233966.072: 80 FF C8 
1764233966.072: 80 00 50 
1764233966.072: 80 00 30 
1764233966.072: 80 FF 6F 
1764233966.072: 80 FE E5 
1764233966.072: 80 FF 21 
1764233966.072: 80 FF AF 
1764233966.072: 80 FF B9 
1764233966.072: 80 FF 22 
1764233966.072: 80 FE AC 
1764233966.072: 80 FE E9 
1764233966.072: 80 FF 73 
1764233966.072: 80 FF 76 
1764233966.072: 80 FE CE 
1764233966.072: 80 FE 3B 
1764233966.072: 80 FE 62 
1764233966.072: 80 FE F2 
1764233966.072: 80 FF 14 
1764233966.072: 80 FE 92 
1764233966.072: 80 FE 1B 
1764233966.072: 80 FE 57 
1764233966.072: 80 FE F9 
1764233966.072: 80 FF 26 
1764233966.072: 80 FE 94 
1764233966.072: 80 FD F3 
1764233966.072: 80 FE 04 
1764233966.072: 80 FE 9B 
1764233966.072: 80 FE E1 
1764233966.072: 80 FE 76 
1764233966.072: 80 FD F0 
1764233966.072: 80 FE 0C 
1764233966.072: 80 FE AC 
1764233966.072: 80 FE F9 
1764233966.072: 80 FE 81 
1764233966.072: 80 FD D4 
1764233966.072: 80 FD C9 
1764233966.072: 80 FE 61 
1764233966.072: 80 FE D0 
1764233966.072: 80 FE 88 
1764233966.072: 80 FD F9 
1764233966.072: 80 FD F4 
1764233966.072: 80 FE 8A 
1764233966.072: 80 FE F6 
1764233966.072: 80 FE 9D 
1764233966.072: 80 FD E4 
1764233966.072: 80 FD A9 
1764233966.072: 80 FE 1F 
1764233966.072: 80 FE 8F 
1764233966.072: 80 FE 52 
1764233966.072: 80 FD B3 
1764233966.072: 80 FD 86 
1764233966.072: 80 FE 04 
1764233966.072: 80 FE 7B 
1764233966.103: 80 FE 3B 
1764233966.103: 80 FD 82 
1764233966.103: 80 FD 2E 
1764233966.103: 80 FD 95 
1764233966.275: 80 FE 1A 
1764233966.275: 80 FE 02 
1764233966.275: 80 FD 70 
1764233966.275: 80 FD 2C 
1764233966.275: 80 FD 8E 
1764233966.275: 80 FE 04 
1764233966.275: 80 FD D7 
1764233966.275: 80 FD 24 
1764233966.275: 80 FC C0 
1764233966.275: 80 FD 15 
1764233966.275: 80 FD A0 
1764233966.275: 80 FD 9E 
1764233966.275: 80 FD 17 
1764233966.275: 80 FC CD 
1764233966.275: 80 FD 30 
1764233966.275: 80 FD C0 
1764233966.275: 80 FD B6 
1764233966.275: 80 FD 10 
1764233966.275: 80 FC 9A 
1764233966.275: 80 FC DB 
1764233966.275: 80 FD 6A 
1764233966.275: 80 FD 78 
1764233966.275: 80 FC ED 
1764233966.275: 80 FC 86 
1764233966.275: 80 FC D5 
1764233966.275: 80 FD 76 
1764233966.275: 80 FD 93 
1764233966.275: 80 FC FF 
1764233966.275: 80 FC 77 
1764233966.275: 80 FC A9 
1764233966.275: 80 FD 54 
1764233966.275: 80 FD 9F 
1764233966.275: 80 FD 3D 
1764233966.275: 80 FC CE 
1764233966.275: 80 FD 01 
1764233966.275: 80 FD A6 
1764233966.275: 80 FD EA 
1764233966.275: 80 FD 74 
1764233966.275: 80 FC DB 
1764233966.275: 80 FC E3 
1764233966.275: 80 FD 78 
1764233966.275: 80 FD CF 
1764233966.275: 80 FD 78 
1764233966.275: 80 FC F2 
1764233966.275: 80 FC FF 
1764233966.275: 80 FD 95 
1764233966.275: 80 FD ED 
1764233966.275: 80 FD 85 
1764233966.275: 80 FC D9 
1764233966.275: 80 FC C0 
1764233966.275: 80 FD 52 
1764233966.275: 02 C8 
1764233966.275: 80 FD CC 
1764233966.275: 80 FD 96 
1764233966.275: 80 FD 11 
1764233966.275: 80 FD 0B 
1764233966.275: 80 FD AA 
1764233966.275: 80 FE 2F 
1764233966.275: 80 FD F4 
1764233966.275: 80 FD 4B 
1764233966.275: 80 FD 14 
1764233966.275: 80 FD 92 
1764233966.275: 80 FE 1C 
1764233966.306: 80 FE 01 
1764233966.306: 80 FD 78 
1764233966.306: 80 FD 54 
1764233966.306: 80 FD DF 
1764233966.306: 80 FE 73 
1764233966.306: 80 FE 54 
1764233966.306: 80 FD B0 
1764233966.306: 80 FD 63 
1764233966.306: 80 FD D6 
1764233966.306: 80 FE 73 
1764233966.306: 80 FE 74 
1764233966.306: 80 FD E8 
1764233966.306: 80 FD A0 
1764233966.306: 80 FE 0C 
1764233966.306: 80 FE A6 
1764233966.306: 80 FE A4 
1764233966.306: 80 FE 06 
1764233966.306: 80 FD 9B 
1764233966.306: 80 FD EA 
1764233966.306: 80 FE 86 
1764233966.306: 80 FE A3 
1764233966.306: 80 FE 2B 
1764233966.306: 80 FD DC 
1764233966.306: 80 FE 3D 
1764233966.306: 80 FE E4 
1764233966.306: 80 FE FF 
1764233966.306: 80 FE 6C 
1764233966.306: 80 FD EF 
1764233966.306: 80 FE 2D 
1764233966.306: 80 FE D3 
1764233966.306: 80 FF 0A 
1764233966.306: 80 FE 98 
1764233966.306: 80 FE 30 
1764233966.306: 80 FE 79 
1764233966.306: 80 FF 2D 
1764233966.306: 80 FF 6C 
1764233966.306: 80 FE EA 
1764233966.306: 80 FE 55 
1764233966.306: 80 FE 73 
1764233966.306: 80 FF 1A 
1764233966.306: 80 FF 71 
1764233966.306: 80 FF 11 
1764233966.306: 80 FE 92 
1764233966.306: 80 FE B7 
1764233966.306: 80 FF 65 
1764233966.306: 80 FF C1 
1764233966.306: 80 FF 52 
1764233966.481: 80 FE A6 
1764233966.481: 80 FE 98 
1764233966.481: 80 FF 31 
1764233966.481: 80 FF A6 
1764233966.481: 80 FF 6B 
1764233966.481: 80 FE EE 
1764233966.481: 80 FE FD 
1764233966.481: 80 FF A6 
1764233966.481: 80 00 23 
1764233966.481: 80 FF E0 
1764233966.481: 80 FF 46 
1764233966.481: 80 FF 29 
1764233966.481: 80 FF B4 
1764233966.481: 80 00 2E 
1764233966.481: 80 FF FD 
1764233966.481: 80 FF 74 
1764233966.481: 80 FF 63 
1764233966.481: 80 FF F6 
1764233966.481: 80 00 77 
1764233966.481: 80 00 3D 
1764233966.481: 80 FF 8F 
1764233966.481: 80 FF 4B 
1764233966.481: 80 FF B8 
1764233966.481: 80 00 30 
1764233966.481: 80 FF FC 
1764233966.481: 80 FF 50 
1764233966.481: 80 FF 03 
1764233966.481: 80 FF 6B 
1764233966.481: 80 FF E3 
1764233966.481: 80 FF A8 
1764233966.481: 80 FE E2 
1764233966.481: 80 FE 76 
1764233966.481: 80 FE DB 
1764233966.481: 80 FF 80 
1764233966.481: 80 FF 8C 
1764233966.481: 80 FE FA 
1764233966.481: 80 FE 98 
1764233966.481: 80 FE E4 
1764233966.481: 80 FF 66 
1764233966.481: 80 FF 4D 
1764233966.481: 80 FE 92 
1764233966.481: 80 FE 05 
1764233966.481: 80 FE 38 
1764233966.481: 80 FE C0 
1764233966.481: 80 FE CD 
1764233966.481: 80 FE 45 
1764233966.481: 80 FD ED 
1764233966.481: 80 FE 54 
1764233966.481: 80 FF 0E 
1764233966.481: 80 FF 34 
1764233966.481: 80 FE 9B 
1764233966.481: 80 FE 11 
1764233966.481: 80 FE 4C 
1764233966.481: 80 FF 06 
1764233966.481: 80 FF 5A 
1764233966.481: 80 FE F9 
1764233966.481: 80 FE 8D 
1764233966.481: 80 FE CB 
1764233966.481: 80 FF 76 
1764233966.481: 80 FF AF 
1764233966.481: 80 FF 1E 
1764233966.481: 80 FE 79 
1764233966.481: 80 FE 90 
1764233966.481: 80 FF 44 
1764233966.512: 80 FF BE 
1764233966.512: 80 FF 92 
1764233966.512: 80 FF 60 
1764233966.512: 80 FF FF 
1764233966.512: 80 01 6C 
1764233966.512: 80 02 D4 
1764233966.512: 80 03 B3 
1764233966.512: 80 04 78 
1764233966.512: 80 05 DC 
1764233966.512: 80 07 DF 
1764233966.512: 80 09 CD 
1764233966.512: 80 0B 35 
1764233966.512: 80 0C 77 
1764233966.512: 86 03 2B 
1764233966.512: 03 4A 
1764233966.512: 80 0E 19 
1764233966.512: 80 0F D5 
1764233966.512: 80 10 BA 
1764233966.512: 80 10 43 
1764233966.512: 80 0F 01 
1764233966.512: 80 0D DF 
1764233966.512: 80 0C F7 
1764233966.512: 80 0B 7E 
1764233966.512: 80 08 E9 
1764233966.512: 80 05 D1 
1764233966.512: 80 03 6A 
1764233966.512: 80 02 2C 
1764233966.512: 80 01 70 
1764233966.512: 80 00 68 
1764233966.512: 80 FF 36 
1764233966.512: 80 FE B8 
1764233966.512: 80 FF 4F 
1764233966.512: 80 00 4A 
1764233966.512: 80 00 B2 
1764233966.512: 80 00 6E 
1764233966.512: 80 00 3C 
1764233966.512: 80 00 95 
1764233966.512: 80 00 FF 
1764233966.512: 80 00 B0 
1764233966.512: 80 FF AC 
1764233966.512: 80 FE D5 
1764233966.512: 80 FE D3 
1764233966.512: 80 FF 46 
1764233966.512: 80 FF 57 
1764233966.512: 80 FE DA 
1764233966.512: 80 FE 7F 
1764233966.512: 80 FE CE 
1764233966.575: 80 FF 61 
1764233966.575: 80 FF 63 
1764233966.575: 80 FE B3 
1764233966.575: 80 FE 17 
1764233966.575: 80 FE 3C 
1764233966.575: 80 FE D4 
1764233966.575: 80 FF 08 
1764233966.575: 80 FE 97 
1764233966.575: 80 FE 31 
1764233966.575: 80 FE 7C 
1764233966.575: 80 FF 2B 
1764233966.575: 80 FF 5B 
1764233966.575: 80 FE C4 
1764233966.575: 80 FE 21 
1764233966.575: 80 FE 3F 
1764233966.575: 80 FE F4 
1764233966.575: 80 FF 5E 
1764233966.575: 80 FF 11 
1764233966.575: 80 FE A6 
1764233966.575: 80 FE E4 
1764233966.575: 80 FF AE 
1764233966.575: 80 00 27 
1764233966.575: 80 FF D7 
1764233966.575: 80 FF 4F 
1764233966.575: 80 FF 67 
1764233966.575: 80 00 21 
1764233966.575: 80 00 AE 
1764233966.575: 80 00 87 
1764233966.575: 80 00 22 
1764233966.575: 80 00 4A 
1764233966.575: 80 01 06 
1764233966.575: 80 01 89 
1764233966.575: 80 01 44 
1764233966.575: 80 00 AC 
1764233966.575: 80 00 A3 
1764233966.575: 80 01 4B 
1764233966.575: 80 01 E0 
1764233966.575: 80 01 BC 
1764233966.575: 80 01 35 
1764233966.606: 80 01 25 
1764233966.606: 80 01 C1 
1764233966.606: 80 02 4E 
1764233966.606: 80 02 1B 
1764233966.606: 80 01 6E 
1764233966.606: 80 01 2A 
1764233966.606: 80 01 A6 
1764233966.606: 80 02 40 
1764233966.606: 80 02 39 
1764233966.606: 80 01 B6 
1764233966.606: 80 01 8B 
1764233966.606: 80 02 13 
1764233966.606: 80 02 B8 
1764233966.606: 80 02 B3 
1764233966.606: 80 02 1A 
1764233966.606: 80 01 C5 
1764233966.606: 80 02 2D 
1764233966.606: 80 02 D6 
1764233966.606: 80 02 F7 
1764233966.606: 80 02 88 
1764233966.606: 80 02 4C 
1764233966.606: 80 02 C1 
1764233966.778: 80 03 72 
1764233966.778: 80 03 93 
1764233966.778: 80 03 0F 
1764233966.778: 80 02 AF 
1764233966.778: 80 03 08 
1764233966.778: 80 03 BE 
1764233966.778: 80 03 FD 
1764233966.778: 80 03 98 
1764233966.778: 80 03 45 
1764233966.778: 80 03 9E 
1764233966.778: 80 04 52 
1764233966.778: 80 04 8E 
1764233966.778: 80 04 16 
1764233966.778: 80 03 9F 
1764233966.778: 80 03 DA 
1764233966.778: 80 04 8F 
1764233966.778: 80 04 EC 
1764233966.778: 80 04 A1 
1764233966.778: 80 04 46 
1764233966.778: 80 04 88 
1764233966.778: 80 05 3A 
1764233966.778: 80 05 8B 
1764233966.778: 80 05 22 
1764233966.778: 80 04 99 
1764233966.778: 80 04 B0 
1764233966.778: 80 05 52 
1764233966.778: 80 05 B4 
1764233966.778: 80 05 6A 
1764233966.778: 80 04 F7 
1764233966.778: 80 05 16 
1764233966.778: 80 05 B8 
1764233966.778: 80 06 15 
1764233966.778: 80 05 B3 
1764233966.778: 80 05 14 
1764233966.778: 80 05 09 
1764233966.778: 80 05 9D 
1764233966.778: 80 06 0F 
1764233966.778: 80 05 D0 
1764233966.778: 80 05 45 
1764233966.778: 80 05 3A 
1764233966.778: 80 05 C8 
1764233966.778: 80 06 30 
1764233966.778: 80 05 D8 
1764233966.778: 80 05 1D 
1764233966.778: 80 04 D7 
1764233966.778: 80 05 40 
1764233966.778: 80 05 A8 
1764233966.778: 80 05 63 
1764233966.778: 80 04 AF 
1764233966.778: 80 04 60 
1764233966.778: 80 04 B9 
1764233966.778: 80 05 13 
1764233966.778: 80 04 B7 
1764233966.778: 80 03 DA 
1764233966.778: 80 03 58 
1764233966.778: 80 03 94 
1764233966.778: 80 03 F9 
1764233966.778: 80 03 C3 
1764233966.778: 80 03 03 
1764233966.778: 80 02 88 
1764233966.778: 80 02 BE 
1764233966.778: 80 03 1C 
1764233966.778: 80 02 D6 
1764233966.778: 80 01 F1 
1764233966.809: 80 01 40 
1764233966.809: 80 01 4B 
1764233966.809: 80 01 A5 
1764233966.809: 80 01 83 
1764233966.809: 80 00 D0 
1764233966.809: 80 00 47 
1764233966.809: 80 00 71 
1764233966.809: 80 00 E4 
1764233966.809: 80 00 D1 
1764233966.809: 80 00 17 
1764233966.809: 80 FF 77 
1764233966.809: 80 FF 90 
1764233966.809: 80 00 0D 
1764233966.919: 80 00 1A 
1764233966.919: 80 FF 7C 
1764233966.919: 80 FE E3 
1764233966.919: 80 FE F8 
1764233966.919: 80 FF 78 
1764233966.919: 80 FF 88 
1764233966.919: 80 FE E0 
1764233966.919: 80 FE 2B 
1764233966.919: 80 FE 2B 
1764233966.919: 80 FE B8 
1764233966.919: 80 FE FD 
1764233966.919: 80 FE 90 
1764233966.919: 80 FE 01 
1764233966.919: 80 FE 11 
1764233966.919: 80 FE A7 
1764233966.919: 80 FE EF 
1764233966.919: 80 FE 75 
1764233966.919: 80 FD C4 
1764233966.919: 80 FD B0 
1764233966.919: 80 FE 3A 
1764233966.919: 80 FE 98 
1764233966.919: 80 FE 44 
1764233966.919: 80 FD B3 
1764233966.919: 80 FD B2 
1764233966.919: 80 FE 4A 
1764233966.919: 80 FE B1 
1764233966.919: 80 FE 53 
1764233966.919: 80 FD 9F 
1764233966.919: 80 FD 78 
1764233966.919: 80 FE 0A 
1764233966.919: 80 FE 96 
1764233966.919: 80 FE 70 
1764233966.919: 80 FD E7 
1764233966.919: 80 FD CF 
1764233966.919: 80 FE 61 
1764233966.919: 80 FE E8 
1764233966.919: 80 FE B2 
1764233966.919: 80 FE 00 
1764233966.919: 80 FD B5 
1764233966.919: 80 FE 29 
1764233966.919: 80 FE B9 
1764233966.919: 80 FE A6 
1764233966.919: 80 FE 14 
1764233966.919: 80 FD D7 
1764233966.919: 80 FE 50 
1764233966.919: 80 FE E9 
1764233966.919: 80 FE D6 
1764233966.919: 80 FE 2B 
1764233966.919: 80 FD BE 
1764233966.919: 80 FE 0F 
1764233966.919: 80 FE A0 
1764233966.919: 80 FE A4 
1764233966.919: 80 FE 13 
1764233966.919: 80 FD B8 
1764233966.919: 80 FE 17 
1764233966.919: 80 FE BD 
1764233966.919: 80 FE D1 
1764233966.919: 80 FE 3A 
1764233966.919: 80 FD BD 
1764233966.919: 80 FD FA 
1764233966.919: 80 FE 9E 
1764233966.919: 80 FE D3 
1764233966.919: 80 FE 61 
1764233966.919: 80 FD F3 
1764233966.950: 80 FE 25 
1764233966.950: 80 FE AF 
1764233966.950: 80 FE C9 
1764233966.950: 80 FE 37 
1764233966.950: 80 FD A6 
1764233966.950: 80 FD C4 
1764233967.114: 80 FE 5A 
1764233967.145: 80 FE 9C 
1764233967.145: 80 FE 37 
1764233967.145: 80 FD C2 
1764233967.145: 80 FD EA 
1764233967.145: 80 FE 7F 
1764233967.145: 80 FE B2 
1764233967.145: 80 FE 2A 
1764233967.145: 80 FD 81 
1764233967.145: 80 FD 7E 
1764233967.145: 80 FE 0E 
1764233967.145: 80 FE 61 
1764233967.145: 80 FE 05 
1764233967.145: 80 FD 7F 
1764233967.145: 80 FD 92 
1764233967.145: 80 FE 34 
1764233967.145: 80 FE 96 
1764233967.145: 80 FE 32 
1764233967.145: 80 FD 85 
1764233967.145: 80 FD 68 
1764233967.145: 80 FD F3 
1764233967.145: 80 FE 66 
1764233967.145: 80 FE 2B 
1764233967.145: 80 FD A2 
1764233967.145: 80 FD 98 
1764233967.145: 80 FE 2D 
1764233967.145: 80 FE A2 
1764233967.145: 80 FE 55 
1764233967.145: 80 FD 9F 
1764233967.145: 80 FD 62 
1764233967.145: 80 FD DD 
1764233967.145: 80 FE 62 
1764233967.145: 80 FE 3D 
1764233967.145: 80 FD A6 
1764233967.145: 80 FD 73 
1764233967.145: 80 FD F1 
1764233967.145: 80 FE 7A 
1764233967.145: 80 FE 4F 
1764233967.145: 80 FD 9C 
1764233967.145: 80 FD 3D 
1764233967.145: 80 FD 9B 
1764233967.145: 80 FE 27 
1764233967.145: 80 FE 1E 
1764233967.145: 80 FD 8F 
1764233967.145: 80 FD 48 
1764233967.145: 80 FD B3 
1764233967.145: 80 FE 46 
1764233967.145: 80 FE 39 
1764233967.145: 80 FD 93 
1764233967.145: 80 FD 25 
1764233967.145: 80 FD 72 
1764233967.145: 80 FE 05 
1764233967.145: 80 FE 11 
1764233967.145: 80 FD 88 
1764233967.145: 80 FD 2E 
1764233967.145: 80 FD 86 
1764233967.145: 80 FE 20 
1764233967.145: 80 FE 29 
1764233967.145: 80 FD 89 
1764233967.145: 80 FD 07 
1764233967.145: 80 FD 43 
1764233967.145: 80 FD E5 
1764233967.145: 80 FE 17 
1764233967.145: 80 FD A4 
1764233967.145: 80 FD 3E 
1764233967.176: 80 FD 87 
1764233967.176: 80 FE 31 
1764233967.176: 80 FE 67 
1764233967.176: 80 FD E6 
1764233967.176: 80 FD 60 
1764233967.176: 80 FD 8C 
1764233967.176: 80 FE 38 
1764233967.176: 80 FE 8B 
1764233967.176: 80 FE 2C 
1764233967.176: 80 FD B8 
1764233967.176: 80 FD EA 
1764233967.176: 80 FE 9D 
1764233967.176: 80 FE F8 
1764233967.176: 80 FE 8B 
1764233967.176: 80 FD E9 
1764233967.176: 80 FD E6 
1764233967.176: 80 FE 80 
1764233967.176: 80 FE ED 
1764233967.176: 80 FE A8 
1764233967.176: 80 FE 25 
1764233967.176: 80 FE 2D 
1764233967.176: 80 FE CB 
1764233967.176: 80 FF 39 
1764233967.176: 80 FE EA 
1764233967.176: 80 FE 4B 
1764233967.176: 80 FE 33 
1764233967.176: 80 FE CB 
1764233967.176: 80 FF 58 
1764233967.176: 80 FF 38 
1764233967.176: 80 FE BA 
1764233967.176: 80 FE AD 
1764233967.176: 80 FF 43 
1764233967.176: 80 FF C9 
1764233967.176: 80 FF 96 
1764233967.176: 80 FE EF 
1764233967.176: 80 FE B1 
1764233967.176: 80 FF 2A 
1764233967.176: 80 FF BA 
1764233967.176: 80 FF A5 
1764233967.176: 80 FF 19 
1764233967.176: 80 FE E7 
1764233967.176: 80 FF 68 
1764233967.176: 80 00 02 
1764233967.176: 80 FF EF 
1764233967.176: 80 FF 4A 
1764233967.176: 80 FE F1 
1764233967.176: 80 FF 5B 
1764233967.176: 80 00 00 
1764233967.176: 80 00 0F 
1764233967.176: 80 FF 87 
1764233967.176: 80 FF 38 
1764233967.176: 80 FF A3 
1764233967.176: 80 00 4C 
1764233967.176: 80 00 5A 
1764233967.176: 80 FF BE 
1764233967.176: 80 FF 4A 
1764233967.176: 80 FF 9D 
1764233967.176: 80 00 56 
1764233967.176: 80 00 98 
1764233967.176: 80 00 35 
1764233967.364: 80 FF E2 
1764233967.364: 80 00 3E 
1764233967.364: 80 00 F4 
1764233967.364: 80 01 2B 
1764233967.364: 80 00 AD 
1764233967.364: 80 00 2E 
1764233967.364: 80 00 61 
1764233967.364: 80 01 0A 
1764233967.364: 80 01 57 
1764233967.364: 80 01 00 
1764233967.364: 80 00 A9 
1764233967.364: 80 00 FD 
1764233967.364: 02 C8 
1764233967.364: 80 01 C3 
1764233967.364: 80 02 21 
1764233967.364: 80 01 BC 
1764233967.364: 80 01 2F 
1764233967.364: 80 01 3E 
1764233967.364: 80 01 D1 
1764233967.364: 80 02 1C 
1764233967.364: 80 01 B5 
1764233967.364: 80 01 23 
1764233967.364: 80 01 25 
1764233967.364: 80 01 AE 
1764233967.364: 80 01 F6 
1764233967.364: 80 01 86 
1764233967.364: 80 00 DC 
1764233967.364: 80 00 C3 
1764233967.364: 80 01 46 
1764233967.364: 80 01 A4 
1764233967.364: 80 01 58 
1764233967.364: 80 00 CA 
1764233967.364: 80 00 BF 
1764233967.364: 80 01 45 
1764233967.364: 80 01 98 
1764233967.364: 80 01 22 
1764233967.364: 80 00 4C 
1764233967.364: 80 FF FB 
1764233967.364: 80 00 64 
1764233967.364: 80 00 CF 
1764233967.364: 80 00 8E 
1764233967.364: 80 FF E4 
1764233967.364: 80 FF A8 
1764233967.364: 80 00 1F 
1764233967.364: 80 00 9D 
1764233967.364: 80 00 68 
1764233967.364: 80 FF B5 
1764233967.364: 80 FF 63 
1764233967.364: 80 FF CF 
1764233967.364: 80 00 5F 
1764233967.364: 80 00 54 
1764233967.364: 80 FF CB 
1764233967.364: 80 FF 94 
1764233967.364: 80 00 11 
1764233967.364: 80 00 A6 
1764233967.364: 80 00 82 
1764233967.364: 80 FF B6 
1764233967.364: 80 FF 29 
1764233967.364: 80 FF 6E 
1764233967.364: 80 00 0A 
1764233967.364: 80 00 25 
1764233967.364: 80 FF B5 
1764233967.364: 80 FF 8F 
1764233967.395: 80 00 47 
1764233967.395: 80 01 74 
1764233967.395: 80 02 48 
1764233967.395: 80 02 B3 
1764233967.395: 80 03 81 
1764233967.395: 80 05 36 
1764233967.395: 80 07 4C 
1764233967.395: 80 08 DE 
1764233967.395: 80 09 DA 
1764233967.395: 80 0B 1B 
1764233967.395: 80 0D 29 
1764233967.395: 80 0F 50 
1764233967.395: 86 03 59 
1764233967.395: 03 46 
1764233967.395: 80 10 54 
1764233967.395: 80 0F E3 
1764233967.395: 80 0E EB 
1764233967.395: 80 0E 59 
1764233967.395: 80 0D E8 
1764233967.395: 80 0C 8C 
1764233967.395: 80 09 E2 
1764233967.395: 80 06 D0 
1764233967.395: 80 04 7C 
1764233967.395: 80 03 0E 
1764233967.395: 80 01 C7 
1764233967.395: 80 00 31 
1764233967.395: 80 FE D7 
1764233967.395: 80 FE 83 
1764233967.395: 80 FF 26 
1764233967.395: 80 FF D8 
1764233967.395: 80 FF F1 
1764233967.395: 80 FF C3 
1764233967.395: 80 FF FF 
1764233967.395: 80 00 A1 
1764233967.395: 80 00 E1 
1764233967.395: 80 00 40 
1764233967.395: 80 FF 3B 
1764233967.395: 80 FE BF 
1764233967.395: 80 FF 05 
1764233967.395: 80 FF 5C 
1764233967.395: 80 FF 23 
1764233967.395: 80 FE A5 
1764233967.395: 80 FE A8 
1764233967.395: 80 FF 56 
1764233967.395: 80 FF EF 
1764233967.395: 80 FF C0 
1764233967.395: 80 FF 12 
1764233967.395: 80 FE C7 
1764233967.395: 80 FF 39 
1764233967.395: 80 FF C8 
1764233967.395: 80 FF BD 
1764233967.395: 80 FF 40 
1764233967.395: 80 FF 1F 
1764233967.395: 80 FF AA 
1764233967.395: 80 00 43 
1764233967.395: 80 00 27 
1764233967.395: 80 FF 77 
1764233967.395: 80 FF 10 
1764233967.395: 80 FF 68 
1764233967.395: 80 FF FB 
1764233967.395: 80 00 01 
1764233967.395: 80 FF 81 
1764233967.395: 80 FF 42 
1764233967.395: 80 FF B6 
1764233967.395: 80 00 5B 
1764233967.395: 80 00 63 
1764233967.469: 80 FF CA 
1764233967.469: 80 FF 62 
1764233967.469: 80 FF BA 
1764233967.469: 80 00 69 
1764233967.469: 80 00 9A 
1764233967.469: 80 00 2C 
1764233967.469: 80 FF DC 
1764233967.469: 80 00 41 
1764233967.469: 80 00 FD 
1764233967.469: 80 01 36 
1764233967.469: 80 00 B8 
1764233967.469: 80 00 3E 
1764233967.469: 80 00 77 
1764233967.469: 80 01 24 
1764233967.469: 80 01 70 
1764233967.469: 80 01 13 
1764233967.469: 80 00 AF 
1764233967.469: 80 00 F4 
1764233967.469: 80 01 AB 
1764233967.469: 80 01 FA 
1764233967.469: 80 01 87 
1764233967.469: 80 00 F5 
1764233967.469: 80 01 0B 
1764233967.469: 80 01 B1 
1764233967.469: 80 02 15 
1764233967.469: 80 01 C1 
1764233967.469: 80 01 3C 
1764233967.469: 80 01 4B 
1764233967.469: 80 01 E7 
1764233967.469: 80 02 44 
1764233967.469: 80 01 E6 
1764233967.547: 80 01 46 
1764233967.547: 80 01 34 
1764233967.547: 80 01 C3 
1764233967.547: 80 02 37 
1764233967.547: 80 02 07 
1764233967.547: 80 01 94 
1764233967.547: 80 01 A0 
1764233967.547: 80 02 3D 
1764233967.547: 80 02 AF 
1764233967.547: 80 02 65 
1764233967.547: 80 01 C2 
1764233967.547: 80 01 A0 
1764233967.547: 80 02 2F 
1764233967.547: 80 02 BE 
1764233967.547: 80 02 A7 
1764233967.547: 80 02 32 
1764233967.547: 80 02 2E 
1764233967.547: 80 02 D7 
1764233967.547: 80 03 80 
1764233967.547: 80 03 75 
1764233967.547: 80 02 EE 
1764233967.547: 80 02 C7 
1764233967.547: 80 03 58 
1764233967.547: 80 04 08 
1764233967.547: 80 04 16 
1764233967.547: 80 03 9E 
1764233967.547: 80 03 71 
1764233967.547: 80 03 F9 
1764233967.547: 80 04 AB 
1764233967.547: 80 04 BE 
1764233967.547: 80 04 36 
1764233967.547: 80 03 E1 
1764233967.547: 80 04 44 
1764233967.547: 80 04 EF 
1764233967.547: 80 05 17 
1764233967.547: 80 04 AC 
1764233967.547: 80 04 68 
1764233967.547: 80 04 CB 
1764233967.547: 80 05 69 
1764233967.547: 80 05 73 
1764233967.547: 80 04 D5 
1764233967.547: 80 04 57 
1764233967.547: 80 04 9A 
1764233967.547: 80 05 46 
1764233967.547: 80 05 80 
1764233967.547: 80 05 10 
1764233967.547: 80 04 A7 
1764233967.641: 80 04 EA 
1764233967.641: 80 05 8D 
1764233967.641: 80 05 B6 
1764233967.641: 80 05 20 
1764233967.641: 80 04 7F 
1764233967.641: 80 04 8F 
1764233967.641: 80 05 1F 
1764233967.641: 80 05 54 
1764233967.641: 80 04 D3 
1764233967.641: 80 04 3A 
1764233967.641: 80 04 47 
1764233967.641: 80 04 D2 
1764233967.641: 80 04 FD 
1764233967.641: 80 04 5C 
1764233967.641: 80 03 87 
1764233967.641: 80 03 57 
1764233967.641: 80 03 C7 
1764233967.641: 80 04 00 
1764233967.641: 80 03 7F 
1764233967.641: 80 02 BD 
1764233967.641: 80 02 89 
1764233967.641: 80 02 EC 
1764233967.641: 80 03 1C 
1764233967.641: 80 02 8B 
1764233967.641: 80 01 A7 
1764233967.641: 80 01 4B 
1764233967.641: 80 01 9A 
1764233967.641: 80 01 DB 
1764233967.641: 80 01 74 
1764233967.641: 80 00 B8 
1764233967.641: 80 00 74 
1764233967.641: 80 00 D1 
1764233967.641: 80 01 1B 
1764233967.641: 80 00 B1 
1764233967.641: 80 FF E3 
1764233967.641: 80 FF 87 
1764233967.641: 80 FF DF 
1764233967.641: 80 00 42 
1764233967.641: 80 00 02 
1764233967.719: 80 FF 58 
1764233967.719: 80 FF 15 
1764233967.719: 80 FF 81 
1764233967.719: 80 FF F7 
1764233967.719: 80 FF B8 
1764233967.719: 80 FE F1 
1764233967.719: 80 FE 84 
1764233967.719: 80 FE E0 
1764233967.719: 80 FF 72 
1764233967.719: 80 FF 6F 
1764233967.719: 80 FE DF 
1764233967.719: 80 FE 8F 
1764233967.719: 80 FE F6 
1764233967.719: 80 FF 94 
1764233967.719: 80 FF 99 
1764233967.719: 80 FE FD 
1764233967.719: 80 FE 8A 
1764233967.719: 80 FE D1 
1764233967.719: 80 FF 6B 
1764233967.719: 80 FF 89 
1764233967.719: 80 FF 09 
1764233967.719: 80 FE A2 
1764233967.719: 80 FE E3 
1764233967.719: 80 FF 75 
1764233967.719: 80 FF 8A 
1764233967.719: 80 FE F5 
1764233967.719: 80 FE 6D 
1764233967.719: 80 FE 9A 
1764233967.719: 80 FF 3B 
1764233967.719: 80 FF 80 
1764233967.719: 80 FF 21 
1764233967.719: 80 FE BF 
1764233967.719: 80 FF 01 
1764233967.719: 80 FF B0 
1764233967.719: 80 FF FC 
1764233967.719: 80 FF 90 
1764233967.719: 80 FF 09 
1764233967.719: 80 FF 22 
1764233967.719: 80 FF C1 
1764233967.719: 80 00 1C 
1764233967.719: 80 FF CB 
1764233967.719: 80 FF 56 
1764233967.719: 80 FF 78 
1764233967.719: 80 00 1D 
1764233967.719: 80 00 77 
1764233967.719: 80 00 10 
1764233967.719: 80 FF 6D 
1764233967.719: 80 FF 61 
1764233967.750: 80 FF F9 
1764233967.750: 80 00 6C 
1764233967.750: 80 00 2B 
1764233967.750: 80 FF 9C 
1764233967.750: 80 FF 8E 
1764233967.750: 80 00 1E 
1764233967.750: 80 00 90 
1764233967.750: 80 00 49 
1764233967.750: 80 FF A7 
1764233967.750: 80 FF 7D 
1764233967.750: 80 00 02 
1764233967.750: 80 00 87 
1764233967.750: 80 00 64 
1764233967.750: 80 FF DD 
1764233967.750: 80 FF C0 
1764233967.750: 80 00 46 
1764233967.750: 80 00 C4 
1764233967.750: 80 00 89 
1764233967.750: 80 FF D1 
1764233967.750: 80 FF 7A 
1764233967.750: 80 FF E1 
1764233967.750: 80 00 6E 
1764233967.782: 80 00 63 
1764233967.782: 80 FF DC 
1764233967.782: 80 FF A4 
1764233967.782: 80 00 1A 
1764233967.782: 80 00 AD 
1764233967.782: 80 00 99 
1764233967.782: 80 FF F2 
1764233967.782: 80 FF 8E 
1764233967.782: 80 FF E9 
1764233967.782: 80 00 83 
1764233967.782: 80 00 92 
1764233967.782: 80 00 0C 
1764233967.946: 80 FF BB 
1764233967.946: 80 00 23 
1764233967.946: 80 00 D1 
1764233967.946: 80 00 ED 
1764233967.946: 80 00 5B 
1764233967.946: 80 FF DD 
1764233967.946: 80 00 15 
1764233967.946: 80 00 B1 
1764233967.946: 80 00 E3 
1764233967.946: 80 00 75 
1764233967.946: 80 00 14 
1764233967.946: 80 00 59 
1764233967.946: 80 00 F8 
1764233967.946: 80 01 22 
1764233967.946: 80 00 A0 
1764233967.946: 80 00 1E 
1764233967.946: 80 00 49 
1764233967.946: 80 00 E6 
1764233967.946: 80 01 26 
1764233967.946: 80 00 BD 
1764233967.946: 80 00 4B 
1764233967.946: 80 00 7E 
1764233967.946: 80 01 24 
1764233967.946: 80 01 69 
1764233967.946: 80 00 ED 
1764233967.946: 80 00 4D 
1764233967.946: 80 00 52 
1764233967.946: 80 00 ED 
1764233967.946: 80 01 4F 
1764233967.946: 80 00 FF 
1764233967.946: 80 00 7C 
1764233967.946: 80 00 89 
1764233967.946: 80 01 24 
1764233967.946: 80 01 85 
1764233967.946: 80 01 29 
1764233967.946: 80 00 84 
1764233967.946: 80 00 69 
1764233967.946: 80 00 F2 
1764233967.946: 80 01 62 
1764233967.946: 80 01 24 
1764233967.946: 80 00 96 
1764233967.946: 80 00 87 
1764233967.946: 80 01 1E 
1764233967.946: 80 01 9D 
1764233967.946: 80 01 5C 
1764233967.946: 80 00 AC 
1764233967.946: 80 00 6C 
1764233967.946: 80 00 E7 
1764233967.946: 80 01 74 
1764233967.946: 80 01 59 
1764233967.946: 80 00 C4 
1764233967.946: 80 00 87 
1764233967.946: 80 00 F6 
1764233967.946: 80 01 76 
1764233967.946: 80 01 4E 
1764233967.946: 80 00 A4 
1764233967.946: 80 00 53 
1764233967.946: 80 00 C2 
1764233967.946: 80 01 60 
1764233967.946: 80 01 67 
1764233967.946: 80 00 E5 
1764233967.946: 80 00 AB 
1764233967.946: 80 01 27 
1764233967.946: 80 01 CA 
1764233967.977: 80 01 C1 
1764233967.977: 80 01 12 
1764233967.977: 80 00 9B 
1764233967.977: 80 00 F1 
1764233967.977: 80 01 A1 
1764233967.977: 80 01 C9 
1764233967.977: 80 01 4A 
1764233967.977: 80 00 E9 
1764233967.977: 80 01 3E 
1764233967.977: 80 01 EA 
1764233967.977: 80 02 0F 
1764233967.977: 80 01 7C 
1764233967.977: 80 00 F1 
1764233968.009: 80 01 1A 
1764233968.040: 80 01 B1 
1764233968.040: 80 01 E0 
1764233968.040: 80 01 68 
1764233968.040: 80 00 F4 
1764233968.040: 80 01 2D 
1764233968.040: 80 01 D1 
1764233968.040: 80 02 04 
1764233968.040: 80 01 77 
1764233968.040: 80 00 D9 
1764233968.040: 80 00 F0 
1764233968.040: 80 01 98 
1764233968.040: 80 01 F6 
1764233968.040: 80 01 9C 
1764233968.040: 80 01 18 
1764233968.040: 80 01 2C 
1764233968.040: 80 01 C9 
1764233968.040: 80 02 1E 
1764233968.040: 80 01 B4 
1764233968.040: 80 01 0D 
1764233968.040: 80 00 FC 
1764233968.040: 80 01 89 
1764233968.040: 80 01 F0 
1764233968.040: 80 01 A9 
1764233968.040: 80 01 1E 
1764233968.040: 80 01 1C 
1764233968.040: 80 01 B6 
1764233968.040: 80 02 27 
1764233968.040: 80 01 D7 
1764233968.040: 80 01 25 
1764233968.040: 80 00 EE 
1764233968.040: 80 01 66 
1764233968.040: 80 01 DA 
1764233968.040: 80 01 A6 
1764233968.040: 80 01 11 
1764233968.040: 80 00 EB 
1764233968.040: 80 01 6C 
1764233968.040: 80 01 E7 
1764233968.040: 80 01 AD 
1764233968.040: 80 00 FF 
1764233968.040: 80 00 BE 
1764233968.040: 80 01 3C 
1764233968.040: 80 01 D7 
1764233968.040: 80 01 CC 
1764233968.040: 80 01 3F 
1764233968.040: 80 01 02 
1764233968.040: 80 01 74 
1764233968.118: 80 01 FE 
1764233968.118: 80 01 DB 
1764233968.118: 80 01 22 
1764233968.118: 80 00 A9 
1764233968.118: 80 00 ED 
1764233968.118: 80 01 70 
1764233968.118: 80 01 6C 
1764233968.118: 80 00 E2 
1764233968.118: 80 00 94 
1764233968.118: 80 00 F9 
1764233968.118: 80 01 95 
1764233968.118: 80 01 96 
1764233968.118: 80 00 F0 
1764233968.118: 80 00 72 
1764233968.118: 80 00 B2 
1764233968.118: 80 01 51 
1764233968.118: 80 01 7D 
1764233968.118: 80 01 0A 
1764233968.118: 80 00 B0 
1764233968.118: 80 01 05 
1764233968.118: 80 01 B5 
1764233968.118: 80 01 EA 
1764233968.118: 80 01 6E 
1764233968.118: 80 00 F5 
1764233968.118: 80 01 2C 
1764233968.118: 80 01 D2 
1764233968.118: 80 02 16 
1764233968.118: 80 01 AF 
1764233968.118: 80 01 45 
1764233968.118: 80 01 8B 
1764233968.118: 80 02 4C 
1764233968.118: 80 02 A6 
1764233968.118: 80 02 36 
1764233968.118: 80 01 9D 
1764233968.118: 80 01 A8 
1764233968.118: 80 02 48 
1764233968.118: 80 02 A7 
1764233968.118: 80 02 47 
1764233968.118: 80 01 AA 
1764233968.180: 80 01 9A 
1764233968.212: 80 02 17 
1764233968.212: 80 02 58 
1764233968.212: 80 01 DB 
1764233968.212: 80 01 1B 
1764233968.212: 80 00 ED 
1764233968.212: 80 01 68 
1764233968.212: 80 01 C6 
1764233968.212: 80 01 72 
1764233968.212: 80 00 CD 
1764233968.212: 80 00 A6 
1764233968.212: 80 01 1B 
1764233968.212: 80 01 6E 
1764233968.212: 80 00 FC 
1764233968.212: 80 00 22 
1764233968.212: 80 FF C5 
1764233968.212: 80 00 28 
1764233968.212: 80 00 99 
1764233968.212: 80 00 62 
1764233968.212: 80 FF BC 
1764233968.212: 80 FF 7E 
1764233968.212: 80 FF F7 
1764233968.212: 80 00 7D 
1764233968.212: 80 00 4B 
1764233968.212: 80 FF 88 
1764233968.212: 80 FF 17 
1764233968.212: 80 FF 6C 
1764233968.212: 80 FF FC 
1764233968.212: 80 FF FA 
1764233968.212: 80 FF 6D 
1764233968.212: 80 FF 1E 
1764233968.212: 80 FF 7E 
1764233968.212: 80 00 06 
1764233968.212: 80 FF EA 
1764233968.212: 80 FF 31 
1764233968.212: 80 FE B5 
1764233968.212: 02 C8 
1764233968.212: 80 FF 03 
1764233968.212: 80 FF A8 
1764233968.212: 80 FF D7 
1764233968.212: 80 FF 86 
1764233968.212: 80 FF 86 
1764233968.212: 80 00 6A 
1764233968.212: 80 01 CE 
1764233968.212: 80 02 E5 
1764233968.212: 80 03 8E 
1764233968.212: 80 04 76 
1764233968.306: 80 06 1A 
1764233968.306: 80 08 1E 
1764233968.306: 80 09 C8 
1764233968.306: 80 0A FE 
1764233968.306: 80 0C 53 
1764233968.306: 80 0E 0C 
1764233968.306: 86 03 8E 
1764233968.306: 03 42 
1764233968.306: 80 0F 86 
1764233968.306: 80 0F DA 
1764233968.306: 80 0E F2 
1764233968.306: 80 0D A8 
1764233968.306: 80 0C AA 
1764233968.306: 80 0B A3 
1764233968.306: 80 09 BC 
1764233968.306: 80 06 D5 
1764233968.306: 80 03 E3 
1764233968.306: 80 01 ED 
1764233968.306: 80 00 F3 
1764233968.306: 80 00 23 
1764233968.306: 80 FE FF 
1764233968.306: 80 FE 07 
1764233968.306: 80 FD FA 
1764233968.306: 80 FE C8 
1764233968.306: 80 FF 8C 
1764233968.306: 80 FF 9D 
1764233968.306: 80 FF 4F 
1764233968.306: 80 FF 5B 
1764233968.306: 80 FF D2 
1764233968.306: 80 FF FB 
1764233968.306: 80 FF 52 
1764233968.306: 80 FE 4E 
1764233968.306: 80 FD DC 
1764233968.306: 80 FE 39 
1764233968.306: 80 FE B2 
1764233968.306: 80 FE 93 
1764233968.306: 80 FE 17 
1764233968.306: 80 FE 03 
1764233968.306: 80 FE 8C 
1764233968.306: 80 FF 05 
1764233968.306: 80 FE BD 
1764233968.306: 80 FD F3 
1764233968.306: 80 FD 86 
1764233968.306: 80 FD D7 
1764233968.306: 80 FE 51 
1764233968.306: 80 FE 3A 
1764233968.306: 80 FD AF 
1764233968.306: 80 FD 76 
1764233968.306: 80 FD E8 
1764233968.306: 80 FE 6F 
1764233968.306: 80 FE 49 
1764233968.306: 80 FD 8E 
1764233968.306: 80 FD 19 
1764233968.306: 80 FD 66 
1764233968.337: 80 FD F9 
1764233968.337: 80 FE 03 
1764233968.337: 80 FD 7D 
1764233968.337: 80 FD 2E 
1764233968.337: 80 FD 92 
1764233968.337: 80 FE 30 
1764233968.337: 80 FE 39 
1764233968.337: 80 FD 9F 
1764233968.337: 80 FD 2F 
1764233968.337: 80 FD 7E 
1764233968.337: 80 FE 28 
1764233968.337: 80 FE 56 
1764233968.337: 80 FD E2 
1764233968.337: 80 FD 8C 
1764233968.337: 80 FD EE 
1764233968.337: 80 FE A8 
1764233968.337: 80 FE D9 
1764233968.337: 80 FE 49 
1764233968.337: 80 FD B6 
1764233968.337: 80 FD DD 
1764233968.337: 80 FE 88 
1764233968.337: 80 FE DD 
1764233968.337: 80 FE 81 
1764233968.368: 80 FE 0B 
1764233968.368: 80 FE 30 
1764233968.368: 80 FE CB 
1764233968.368: 80 FF 0F 
1764233968.368: 80 FE 9A 
1764233968.368: 80 FD FB 
1764233968.368: 80 FD F1 
1764233968.368: 80 FE 75 
1764233968.368: 80 FE C7 
1764233968.368: 80 FE 78 
1764233968.368: 80 FD FF 
1764233968.368: 80 FE 14 
1764233968.368: 80 FE AD 
1764233968.368: 80 FF 08 
1764233968.368: 80 FE AD 
1764233968.368: 80 FE 14 
1764233968.368: 80 FE 0C 
1764233968.368: 80 FE A3 
1764233968.399: 80 FF 1A 
1764233968.399: 80 FE E2 
1764233968.399: 80 FE 60 
1764233968.399: 80 FE 61 
1764233968.399: 80 FF 03 
1764233968.399: 80 FF 86 
1764233968.399: 80 FF 4B 
1764233968.399: 80 FE AC 
1764233968.399: 80 FE 88 
1764233968.399: 80 FF 19 
1764233968.399: 80 FF B0 
1764233968.399: 80 FF 9C 
1764233968.430: 80 FF 1A 
1764233968.430: 80 FE FC 
1764233968.430: 80 FF 87 
1764233968.430: 80 00 17 
1764233968.430: 80 FF FC 
1764233968.430: 80 FF 68 
1764233968.430: 80 FF 35 
1764233968.430: 80 FF B8 
1764233968.634: 80 00 56 
1764233968.634: 80 00 53 
1764233968.634: 80 FF D2 
1764233968.634: 80 FF A7 
1764233968.634: 80 00 36 
1764233968.634: 80 00 E7 
1764233968.634: 80 00 E9 
1764233968.634: 80 00 4D 
1764233968.634: 80 FF F3 
1764233968.634: 80 00 68 
1764233968.634: 80 01 2F 
1764233968.634: 80 01 6A 
1764233968.634: 80 01 02 
1764233968.634: 80 00 B9 
1764233968.634: 80 01 1E 
1764233968.634: 80 01 C9 
1764233968.634: 80 01 E7 
1764233968.634: 80 01 59 
1764233968.634: 80 00 E2 
1764233968.634: 80 01 28 
1764233968.634: 80 01 D4 
1764233968.634: 80 02 10 
1764233968.634: 80 01 9F 
1764233968.634: 80 01 34 
1764233968.634: 80 01 78 
1764233968.634: 80 02 27 
1764233968.634: 80 02 68 
1764233968.634: 80 01 EB 
1764233968.634: 80 01 5B 
1764233968.634: 80 01 74 
1764233968.634: 80 02 11 
1764233968.634: 80 02 65 
1764233968.634: 80 02 0D 
1764233968.634: 80 01 99 
1764233968.634: 80 01 BB 
1764233968.634: 80 02 51 
1764233968.634: 80 02 8C 
1764233968.634: 80 02 04 
1764233968.634: 80 01 49 
1764233968.634: 80 01 26 
1764233968.634: 80 01 97 
1764233968.634: 80 01 D7 
1764233968.634: 80 01 69 
1764233968.634: 80 00 C1 
1764233968.634: 80 00 A3 
1764233968.634: 80 01 10 
1764233968.634: 80 01 48 
1764233968.634: 80 00 C4 
1764233968.634: 80 FF F5 
1764233968.634: 80 FF AC 
1764233968.634: 80 00 09 
1764233968.634: 80 00 56 
1764233968.634: 80 FF FB 
1764233968.634: 80 FF 4E 
1764233968.634: 80 FF 19 
1764233968.634: 80 FF 87 
1764233968.634: 80 FF E4 
1764233968.634: 80 FF 8A 
1764233968.634: 80 FE C0 
1764233968.634: 80 FE 5E 
1764233968.634: 80 FE AE 
1764233968.634: 80 FF 13 
1764233968.634: 80 FE DF 
1764233968.634: 80 FE 3E 
1764233968.665: 80 FD FD 
1764233968.665: 80 FE 6C 
1764233968.665: 80 FE EF 
1764233968.665: 80 FE C8 
1764233968.665: 80 FE 16 
1764233968.665: 80 FD B2 
1764233968.665: 80 FE 0A 
1764233968.665: 80 FE 95 
1764233968.665: 80 FE 8D 
1764233968.665: 80 FD FC 
1764233968.665: 80 FD AB 
1764233968.665: 80 FE 0E 
1764233968.665: 80 FE A5 
1764233968.665: 80 FE A1 
1764233968.665: 80 FD FE 
1764233968.665: 80 FD 88 
1764233968.665: 80 FD D1 
1764233968.665: 80 FE 6C 
1764233968.665: 80 FE 8C 
1764233968.665: 80 FE 11 
1764233968.665: 80 FD B8 
1764233968.665: 80 FE 0F 
1764233968.665: 80 FE B3 
1764233968.665: 80 FE CC 
1764233968.665: 80 FE 34 
1764233968.665: 80 FD AE 
1764233968.665: 80 FD E8 
1764233968.665: 80 FE 98 
1764233968.665: 80 FE E4 
1764233968.665: 80 FE 83 
1764233968.665: 80 FE 20 
1764233968.665: 80 FE 6A 
1764233968.665: 80 FF 28 
1764233968.665: 80 FF 7C 
1764233968.665: 80 FF 0B 
1764233968.665: 80 FE 76 
1764233968.665: 80 FE 81 
1764233968.696: 80 FF 18 
1764233968.696: 80 FF 6D 
1764233968.696: 80 FF 12 
1764233968.696: 80 FE 8D 
1764233968.696: 80 FE 9D 
1764233968.696: 80 FF 34 
1764233968.696: 80 FF 89 
1764233968.696: 80 FF 24 
1764233968.696: 80 FE 86 
1764233968.696: 80 FE 7C 
1764233968.696: 80 FF 12 
1764233968.696: 80 FF 82 
1764233968.696: 80 FF 3E 
1764233968.696: 80 FE AD 
1764233968.696: 80 FE 9B 
1764233968.696: 80 FF 21 
1764233968.696: 80 FF 84 
1764233968.696: 80 FF 2C 
1764233968.696: 80 FE 75 
1764233968.696: 80 FE 3A 
1764233968.696: 80 FE B2 
1764233968.696: 80 FF 30 
1764233968.696: 80 FF 0C 
1764233968.696: 80 FE 81 
1764233968.696: 80 FE 58 
1764233968.696: 80 FE CE 
1764233968.696: 80 FF 40 
1764233968.696: 80 FF 03 
1764233968.696: 80 FE 4F 
1764233968.696: 80 FD F9 
1764233968.696: 80 FE 58 
1764233968.696: 80 FE D9 
1764233968.696: 80 FE C8 
1764233968.696: 80 FE 43 
1764233968.696: 80 FE 0F 
1764233968.696: 80 FE 88 
1764233968.696: 80 FF 1D 
1764233968.696: 80 FF 0F 
1764233968.696: 80 FE 6E 
1764233968.727: 80 FE 07 
1764233968.727: 80 FE 52 
1764233968.727: 80 FE DC 
1764233968.727: 80 FE E4 
1764233968.727: 80 FE 61 
1764233968.727: 80 FE 0E 
1764233968.727: 80 FE 62 
1764233968.727: 80 FE EF 
1764233968.915: 80 FE F3 
1764233968.962: 80 FE 5E 
1764233968.962: 80 FD F2 
1764233968.962: 80 FE 3C 
1764233968.962: 80 FE D9 
1764233968.962: 80 FE FA 
1764233968.962: 80 FE 76 
1764233968.962: 80 FE 04 
1764233968.962: 80 FE 45 
1764233968.962: 80 FE EC 
1764233968.962: 80 FF 22 
1764233968.962: 80 FE A1 
1764233968.962: 80 FE 16 
1764233968.962: 80 FE 35 
1764233968.962: 80 FE D3 
1764233968.962: 80 FF 24 
1764233968.962: 80 FE CD 
1764233968.962: 80 FE 5C 
1764233968.962: 80 FE 81 
1764233968.962: 80 FF 17 
1764233968.962: 80 FF 52 
1764233968.962: 80 FE D0 
1764233968.962: 80 FE 24 
1764233968.962: 80 FE 1E 
1764233968.962: 80 FE B9 
1764233968.962: 80 FF 2B 
1764233968.962: 80 FE EE 
1764233968.962: 80 FE 6E 
1764233968.962: 80 FE 70 
1764233968.962: 80 FF 02 
1764233968.962: 80 FF 68 
1764233968.962: 80 FF 14 
1764233968.962: 80 FE 6D 
1764233968.962: 80 FE 40 
1764233968.962: 80 FE AF 
1764233968.962: 80 FF 0E 
1764233968.962: 80 FE CB 
1764233968.962: 80 FE 3F 
1764233968.962: 80 FE 34 
1764233968.962: 80 FE D2 
1764233968.962: 80 FF 5B 
1764233968.962: 80 FF 23 
1764233968.962: 80 FE 75 
1764233968.962: 80 FE 33 
1764233968.962: 80 FE AC 
1764233968.962: 80 FF 3B 
1764233968.962: 80 FF 24 
1764233968.962: 80 FE 8D 
1764233968.962: 80 FE 4A 
1764233968.962: 80 FE B8 
1764233968.962: 80 FF 40 
1764233968.962: 80 FF 23 
1764233968.962: 80 FE 7D 
1764233968.962: 80 FE 28 
1764233968.962: 80 FE 95 
1764233968.962: 80 FF 3D 
1764233968.962: 80 FF 54 
1764233968.962: 80 FE D8 
1764233968.962: 80 FE 92 
1764233968.962: 80 FE FC 
1764233968.962: 80 FF 99 
1764233968.962: 80 FF 98 
1764233968.962: 80 FE EC 
1764233968.962: 80 FE 68 
1764233968.962: 80 FE AA 
1764233968.993: 80 FF 50 
1764233968.993: 80 FF 80 
1764233968.993: 80 FF 0E 
1764233968.993: 80 FE B5 
1764233968.993: 80 FF 11 
1764233968.993: 80 FF C7 
1764233968.993: 80 FF F7 
1764233968.993: 80 FF 68 
1764233968.993: 80 FE D7 
1764233968.993: 80 FE FE 
1764233968.993: 80 FF A2 
1764233968.993: 80 FF EA 
1764233968.993: 80 FF 85 
1764233968.993: 80 FF 12 
1764233968.993: 80 FF 42 
1764233968.993: 80 FF DF 
1764233968.993: 80 00 15 
1764233968.993: 80 FF 8E 
1764233968.993: 80 FE ED 
1764233968.993: 80 FE F4 
1764233968.993: 80 FF 84 
1764233968.993: 80 FF CC 
1764233968.993: 80 FF 6A 
1764233968.993: 80 FE ED 
1764233968.993: 80 FF 12 
1764233968.993: 80 FF BD 
1764233968.993: 80 00 19 
1764233968.993: 80 FF B1 
1764233968.993: 80 FF 14 
1764233968.993: 80 FF 13 
1764233968.993: 80 FF B3 
1764233968.993: 80 00 2A 
1764233968.993: 80 FF EF 
1764233968.993: 80 FF 75 
1764233968.993: 80 FF 86 
1764233968.993: 80 00 30 
1764233968.993: 80 00 AD 
1764233968.993: 80 00 68 
1764233968.993: 80 FF C9 
1764233968.993: 80 FF AF 
1764233968.993: 80 00 47 
1764233968.993: 80 00 D9 
1764233968.993: 80 00 BC 
1764233968.993: 80 00 3E 
1764233968.993: 80 00 33 
1764233968.993: 80 00 D2 
1764233968.993: 80 01 63 
1764233968.993: 80 01 32 
1764233968.993: 80 00 83 
1764233968.993: 80 00 3A 
1764233968.993: 80 00 AD 
1764233968.993: 80 01 35 
1764233968.993: 80 01 0E 
1764233968.993: 80 00 63 
1764233968.993: 80 00 10 
1764233968.993: 80 00 75 
1764233968.993: 80 00 F5 
1764233968.993: 80 00 C6 
1764233968.993: 80 00 06 
1764233968.993: 80 FF 96 
1764233968.993: 80 FF EF 
1764233968.993: 80 00 84 
1764233968.993: 80 00 81 
1764233968.993: 80 FF E4 
1764233969.024: 80 FF 80 
1764233969.024: 80 FF D5 
1764233969.024: 80 00 65 
1764233969.024: 80 00 53 
1764233969.024: 80 FF 91 
1764233969.024: 80 FE F3 
1764233969.262: 80 FF 1A 
1764233969.293: 80 FF A8 
1764233969.293: 80 FF C1 
1764233969.293: 80 FF 37 
1764233969.293: 80 FE C1 
1764233969.293: 80 FE FD 
1764233969.293: 80 FF 99 
1764233969.293: 80 FF C1 
1764233969.293: 80 FF 38 
1764233969.293: 80 FE B4 
1764233969.293: 80 FE E3 
1764233969.293: 80 FF 8C 
1764233969.293: 80 FF D9 
1764233969.293: 80 FF 72 
1764233969.293: 80 FE EE 
1764233969.293: 80 FE FD 
1764233969.293: 80 FF 81 
1764233969.293: 80 FF B9 
1764233969.293: 80 FF 4A 
1764233969.293: 80 FE C3 
1764233969.293: 80 FE DF 
1764233969.293: 80 FF 9B 
1764233969.293: 80 00 43 
1764233969.293: 80 00 77 
1764233969.293: 80 00 BB 
1764233969.293: 80 01 CC 
1764233969.293: 80 03 9C 
1764233969.293: 80 05 4E 
1764233969.293: 80 06 4A 
1764233969.293: 80 07 01 
1764233969.293: 80 08 60 
1764233969.293: 80 0A 9B 
1764233969.293: 80 0C E0 
1764233969.293: 80 0E 4B 
1764233969.293: 86 03 3C 
1764233969.293: 03 48 
1764233969.293: 80 0E D5 
1764233969.293: 80 0F 22 
1764233969.293: 80 0F 73 
1764233969.293: 80 0F 44 
1764233969.293: 80 0D FE 
1764233969.293: 80 0B D3 
1764233969.293: 80 09 84 
1764233969.293: 80 07 74 
1764233969.293: 80 05 55 
1764233969.293: 80 02 DC 
1764233969.293: 80 00 7E 
1764233969.293: 80 FF 15 
1764233969.293: 80 FE CE 
1764233969.293: 80 FE E9 
1764233969.293: 80 FE 9C 
1764233969.293: 80 FE 10 
1764233969.293: 80 FE 10 
1764233969.293: 80 FE E0 
1764233969.293: 80 FF C6 
1764233969.293: 80 FF E4 
1764233969.293: 80 FF 4B 
1764233969.293: 80 FE D4 
1764233969.293: 80 FE FD 
1764233969.293: 80 FF 47 
1764233969.293: 80 FE F5 
1764233969.293: 80 FE 1B 
1764233969.293: 80 FD 96 
1764233969.293: 80 FD ED 
1764233969.293: 80 FE A3 
1764233969.293: 80 FE D5 
1764233969.293: 80 FE 5C 
1764233969.325: 80 FD F9 
1764233969.325: 80 FE 47 
1764233969.325: 80 FE EA 
1764233969.325: 80 FF 0C 
1764233969.325: 80 FE 7F 
1764233969.325: 80 FD FF 
1764233969.325: 80 FE 3D 
1764233969.325: 80 FE F3 
1764233969.325: 80 FF 49 
1764233969.325: 80 FE EE 
1764233969.325: 80 FE 85 
1764233969.325: 80 FE BE 
1764233969.325: 80 FF 66 
1764233969.325: 80 FF AA 
1764233969.325: 80 FF 35 
1764233969.325: 80 FE A9 
1764233969.325: 80 FE C6 
1764233969.325: 80 FF 6D 
1764233969.325: 80 FF CE 
1764233969.325: 80 FF 7C 
1764233969.325: 80 FF 07 
1764233969.325: 80 FF 2C 
1764233969.325: 80 FF DA 
1764233969.325: 80 00 3E 
1764233969.325: 80 FF E4 
1764233969.325: 80 FF 54 
1764233969.325: 80 FF 5D 
1764233969.325: 80 00 02 
1764233969.325: 80 00 7D 
1764233969.325: 80 00 47 
1764233969.325: 80 FF CF 
1764233969.325: 80 FF D9 
1764233969.325: 80 00 70 
1764233969.325: 80 00 D4 
1764233969.325: 80 00 7E 
1764233969.325: 80 FF DC 
1764233969.325: 80 FF C4 
1764233969.325: 80 00 57 
1764233969.325: 80 00 DC 
1764233969.325: 80 00 B8 
1764233969.325: 80 00 3D 
1764233969.325: 02 C8 
1764233969.325: 80 00 37 
1764233969.325: 80 00 CD 
1764233969.325: 80 01 48 
1764233969.325: 80 01 04 
1764233969.325: 80 00 51 
1764233969.325: 80 00 0B 
1764233969.325: 80 00 7E 
1764233969.325: 80 00 FF 
1764233969.325: 80 00 DA 
1764233969.325: 80 00 43 
1764233969.325: 80 00 10 
1764233969.325: 80 00 97 
1764233969.325: 80 01 37 
1764233969.325: 80 01 28 
1764233969.325: 80 00 89 
1764233969.325: 80 00 3B 
1764233969.325: 80 00 B5 
1764233969.325: 80 01 6D 
1764233969.325: 80 01 8E 
1764233969.325: 80 01 18 
1764233969.356: 80 00 D9 
1764233969.356: 80 01 4F 
1764233969.356: 80 01 FD 
1764233969.356: 80 02 0E 
1764233969.356: 80 01 71 
1764233969.356: 80 00 FA 
1764233969.356: 80 01 4A 
1764233969.356: 80 02 01 
1764233969.356: 80 02 45 
1764233969.356: 80 01 E4 
1764233969.356: 80 01 95 
1764233969.356: 80 01 F5 
1764233969.356: 80 02 AE 
1764233969.356: 80 02 EB 
1764233969.356: 80 02 74 
1764233969.356: 80 02 03 
1764233969.356: 80 02 45 
1764233969.356: 80 02 F8 
1764233969.356: 80 03 44 
1764233969.356: 80 02 DD 
1764233969.356: 80 02 71 
1764233969.356: 80 02 B5 
1764233969.356: 80 03 70 
1764233969.356: 80 03 C1 
1764233969.356: 80 03 45 
1764233969.356: 80 02 A3 
1764233969.356: 80 02 AD 
1764233969.356: 80 03 53 
1764233969.356: 80 03 BD 
1764233969.356: 80 03 6B 
1764233969.356: 80 02 E2 
1764233969.356: 80 02 EA 
1764233969.356: 80 03 81 
1764233969.356: 80 03 DC 
1764233969.356: 80 03 78 
1764233969.356: 80 02 CE 
1764233969.356: 80 02 B5 
1764233969.356: 80 03 42 
1764233969.356: 80 03 B5 
1764233969.356: 80 03 77 
1764233969.356: 80 02 EA 
1764233969.356: 80 02 D9 
1764233969.356: 80 03 63 
1764233969.356: 80 03 CC 
1764233969.356: 80 03 76 
1764233969.356: 80 02 B5 
1764233969.356: 80 02 63 
1764233969.356: 80 02 BE 
1764233969.356: 80 03 21 
1764233969.356: 80 02 E5 
1764233969.356: 80 02 45 
1764233969.356: 80 02 08 
1764233969.356: 80 02 6A 
1764233969.356: 80 02 C8 
1764233969.356: 80 02 72 
1764233969.356: 80 01 A0 
1764233969.356: 80 01 29 
1764233969.356: 80 01 67 
1764233969.356: 80 01 C1 
1764233969.356: 80 01 7C 
1764233969.356: 80 00 B9 
1764233969.356: 80 00 47 
1764233969.356: 80 00 8C 
1764233969.356: 80 00 F5 
1764233969.387: 80 00 B8 
1764233969.387: 80 FF E4 
1764233969.387: 80 FF 4F 
1764233969.387: 80 FF 80 
1764233969.387: 80 FF FD 
1764233969.387: 80 FF F4 
1764233969.387: 80 FF 55 
1764233969.387: 80 FE E1 
1764233969.387: 80 FF 24 
1764233969.387: 80 FF B3 
1764233969.387: 80 FF B9 
1764233969.387: 80 FF 12 
1764233969.387: 80 FE 7E 
1764233969.387: 80 FE A0 
1764233969.387: 80 FF 2C 
1764233969.387: 80 FF 4F 
1764233969.387: 80 FE CF 
1764233969.387: 80 FE 55 
1764233969.387: 80 FE 86 
1764233969.434: 80 FF 1A 
1764233969.465: 80 FF 3E 
1764233969.465: 80 FE A7 
1764233969.465: 80 FE 02 
1764233969.465: 80 FE 0D 
1764233969.465: 80 FE A4 
1764233969.465: 80 FE F0 
1764233969.465: 80 FE 8C 
1764233969.465: 80 FE 07 
1764233969.465: 80 FE 1C 
1764233969.465: 80 FE B3 
1764233969.465: 80 FF 02 
1764233969.465: 80 FE 9B 
1764233969.465: 80 FE 06 
1764233969.465: 80 FE 08 
1764233969.465: 80 FE 9A 
1764233969.465: 80 FE F7 
1764233969.465: 80 FE A8 
1764233969.465: 80 FE 27 
1764233969.465: 80 FE 3A 
1764233969.465: 80 FE DD 
1764233969.465: 80 FF 41 
1764233969.465: 80 FE DE 
1764233969.465: 80 FE 2B 
1764233969.465: 80 FE 06 
1764233969.465: 80 FE 90 
1764233969.465: 80 FF 0B 
1764233969.465: 80 FE D6 
1764233969.465: 80 FE 46 
1764233969.465: 80 FE 2D 
1764233969.465: 80 FE B5 
1764233969.465: 80 FF 29 
1764233969.465: 80 FE E4 
1764233969.465: 80 FE 33 
1764233969.465: 80 FD F0 
1764233969.465: 80 FE 62 
1764233969.465: 80 FE E1 
1764233969.465: 80 FE BC 
1764233969.465: 80 FE 26 
1764233969.465: 80 FD F0 
1764233969.559: 80 FE 6A 
1764233969.559: 80 FE F1 
1764233969.559: 80 FE C9 
1764233969.559: 80 FE 17 
1764233969.559: 80 FD B7 
1764233969.559: 80 FE 15 
1764233969.559: 80 FE A5 
1764233969.559: 80 FE 9E 
1764233969.559: 80 FE 09 
1764233969.559: 80 FD B4 
1764233969.559: 80 FE 15 
1764233969.559: 80 FE A9 
1764233969.559: 80 FE 9D 
1764233969.559: 80 FD EE 
1764233969.559: 80 FD 6F 
1764233969.559: 80 FD B4 
1764233969.559: 80 FE 54 
1764233969.559: 80 FE 79 
1764233969.559: 80 FE 01 
1764233969.559: 80 FD A7 
1764233969.559: 80 FD FD 
1764233969.559: 80 FE A1 
1764233969.559: 80 FE BA 
1764233969.559: 80 FE 1E 
1764233969.559: 80 FD 8F 
1764233969.559: 80 FD BC 
1764233969.559: 80 FE 5D 
1764233969.559: 80 FE 96 
1764233969.559: 80 FE 21 
1764233969.559: 80 FD A8 
1764233969.559: 80 FD DE 
1764233969.559: 80 FE 88 
1764233969.559: 80 FE C9 
1764233969.559: 80 FE 49 
1764233969.559: 80 FD AD 
1764233969.559: 80 FD BD 
1764233969.559: 80 FE 5D 
1764233969.559: 80 FE BC 
1764233969.559: 80 FE 6B 
1764233969.559: 80 FD F3 
1764233969.559: 80 FE 15 
1764233969.559: 80 FE BF 
1764233969.559: 80 FF 20 
1764233969.559: 80 FE BD 
1764233969.746: 80 FE 1A 
1764233969.778: 80 FE 0C 
1764233969.778: 80 FE A1 
1764233969.778: 80 FF 14 
1764233969.778: 80 FE D6 
1764233969.778: 80 FE 4D 
1764233969.778: 80 FE 47 
1764233969.778: 80 FE DB 
1764233969.778: 80 FF 49 
1764233969.778: 80 FE FC 
1764233969.778: 80 FE 56 
1764233969.778: 80 FE 30 
1764233969.778: 80 FE B8 
1764233969.778: 80 FF 37 
1764233969.778: 80 FF 05 
1764233969.778: 80 FE 6E 
1764233969.778: 80 FE 4C 
1764233969.778: 80 FE D9 
1764233969.778: 80 FF 62 
1764233969.778: 80 FF 2F 
1764233969.778: 80 FE 7D 
1764233969.778: 80 FE 30 
1764233969.778: 80 FE A9 
1764233969.778: 80 FF 48 
1764233969.778: 80 FF 46 
1764233969.778: 80 FE BD 
1764233969.778: 80 FE 7D 
1764233969.778: 80 FE ED 
1764233969.778: 80 FF 7E 
1764233969.778: 80 FF 69 
1764233969.778: 80 FE BC 
1764233969.778: 80 FE 50 
1764233969.778: 80 FE A4 
1764233969.778: 80 FF 3D 
1764233969.778: 80 FF 4B 
1764233969.778: 80 FE C5 
1764233969.778: 80 FE 6F 
1764233969.778: 80 FE CD 
1764233969.778: 80 FF 6D 
1764233969.778: 80 FF 77 
1764233969.778: 80 FE D6 
1764233969.778: 80 FE 53 
1764233969.778: 80 FE 8E 
1764233969.778: 80 FF 30 
1764233969.778: 80 FF 63 
1764233969.778: 80 FE F5 
1764233969.778: 80 FE 9A 
1764233969.778: 80 FE F1 
1764233969.778: 80 FF A7 
1764233969.778: 80 FF DF 
1764233969.778: 80 FF 59 
1764233969.778: 80 FE C9 
1764233969.778: 80 FE E4 
1764233969.778: 80 FF 7A 
1764233969.778: 80 FF B9 
1764233969.778: 80 FF 4E 
1764233969.778: 80 FE D6 
1764233969.778: 80 FF 04 
1764233969.778: 80 FF AA 
1764233969.778: 80 FF F2 
1764233969.778: 80 FF 7D 
1764233969.778: 80 FE E7 
1764233969.778: 80 FE FA 
1764233969.778: 80 FF A6 
1764233969.778: 80 00 17 
1764233969.809: 80 FF D3 
1764233969.809: 80 FF 58 
1764233969.809: 80 FF 6C 
1764233969.809: 80 00 0F 
1764233969.809: 80 00 78 
1764233969.809: 80 00 23 
1764233969.809: 80 FF 86 
1764233969.809: 80 FF 73 
1764233969.809: 80 00 05 
1764233969.809: 80 00 7C 
1764233969.809: 80 00 47 
1764233969.809: 80 FF C3 
1764233969.809: 80 FF BF 
1764233969.809: 80 00 58 
1764233969.809: 80 00 D3 
1764233969.809: 80 00 8D 
1764233969.809: 80 FF D8 
1764233969.809: 80 FF 93 
1764233969.809: 80 00 02 
1764233969.809: 80 00 80 
1764233969.809: 80 00 5D 
1764233969.809: 80 FF CD 
1764233969.809: 80 FF 9C 
1764233969.809: 80 00 13 
1764233969.809: 80 00 8F 
1764233969.809: 80 00 5D 
1764233969.809: 80 FF AE 
1764233969.809: 80 FF 5C 
1764233969.809: 80 FF CC 
1764233969.809: 80 00 69 
1764233969.809: 80 00 6C 
1764233969.809: 80 FF E4 
1764233969.809: 80 FF 9D 
1764233969.809: 80 00 06 
1764233969.809: 80 00 9C 
1764233969.809: 80 00 97 
1764233969.809: 80 FF FC 
1764233969.809: 80 FF 99 
1764233969.809: 80 FF F2 
1764233969.809: 80 00 96 
1764233969.809: 80 00 B6 
1764233969.809: 80 00 42 
1764233969.809: 80 FF FD 
1764233969.809: 80 00 71 
1764233969.809: 80 01 2E 
1764233969.809: 80 01 5B 
1764233969.809: 80 00 D2 
1764233969.809: 80 00 5B 
1764233969.809: 80 00 A2 
1764233969.809: 80 01 5C 
1764233969.809: 80 01 AE 
1764233969.809: 80 01 53 
1764233969.997: 80 00 F2 
1764233970.028: 80 01 38 
1764233970.028: 80 01 E7 
1764233970.028: 80 02 28 
1764233970.028: 80 01 AA 
1764233970.028: 80 01 11 
1764233970.028: 80 01 1E 
1764233970.028: 80 01 AF 
1764233970.028: 80 01 EF 
1764233970.028: 80 01 77 
1764233970.028: 80 00 DA 
1764233970.028: 80 00 DD 
1764233970.028: 80 01 6B 
1764233970.028: 80 01 AD 
1764233970.028: 80 01 28 
1764233970.028: 80 00 67 
1764233970.028: 80 00 48 
1764233970.028: 80 00 D5 
1764233970.028: 80 01 3B 
1764233970.028: 80 00 E3 
1764233970.028: 80 00 37 
1764233970.028: 80 00 0E 
1764233970.028: 80 00 85 
1764233970.028: 80 00 D6 
1764233970.028: 80 00 60 
1764233970.028: 80 FF 84 
1764233970.028: 80 FF 28 
1764233970.028: 80 FF 89 
1764233970.028: 80 FF F4 
1764233970.028: 80 FF BD 
1764233970.028: 80 FF 25 
1764233970.028: 80 FE FF 
1764233970.028: 80 FF 88 
1764233970.028: 80 00 11 
1764233970.028: 80 FF E4 
1764233970.028: 80 FF 3B 
1764233970.028: 80 FE EF 
1764233970.028: 80 FF 59 
1764233970.028: 80 FF DF 
1764233970.028: 80 FF C4 
1764233970.028: 80 FF 22 
1764233970.028: 80 FE C5 
1764233970.028: 80 FF 0F 
1764233970.028: 80 FF 7D 
1764233970.028: 80 FF 5B 
1764233970.028: 80 FE BC 
1764233970.028: 80 FE 6C 
1764233970.028: 80 FE E1 
1764233970.028: 80 FF AD 
1764233970.028: 80 00 1B 
1764233970.028: 80 00 36 
1764233970.028: 80 00 C1 
1764233970.028: 80 02 36 
1764233970.028: 80 04 14 
1764233970.028: 80 05 77 
1764233970.028: 80 06 33 
1764233970.028: 80 07 14 
1764233970.028: 80 08 D3 
1764233970.028: 80 0B 29 
1764233970.028: 80 0D 1C 
1764233970.028: 80 0E 1D 
1764233970.028: 86 03 56 
1764233970.028: 03 46 
1764233970.028: 80 0E 85 
1764233970.028: 80 0E E6 
1764233970.028: 80 0F 24 
1764233970.028: 80 0E 97 
1764233970.059: 80 0C F1 
1764233970.059: 80 0A B4 
1764233970.059: 80 08 91 
1764233970.059: 80 06 99 
1764233970.059: 80 04 65 
1764233970.059: 80 01 EC 
1764233970.059: 80 FF E1 
1764233970.059: 80 FE EA 
1764233970.059: 80 FE D0 
1764233970.059: 80 FE BC 
1764233970.059: 80 FE 40 
1764233970.059: 80 FD DE 
1764233970.059: 80 FE 3B 
1764233970.059: 80 FF 27 
1764233970.059: 80 FF BF 
1764233970.059: 80 FF 80 
1764233970.059: 80 FE E6 
1764233970.059: 80 FE BE 
1764233970.059: 80 FF 0F 
1764233970.059: 80 FF 20 
1764233970.059: 80 FE 80 
1764233970.059: 80 FD B5 
1764233970.059: 80 FD 93 
1764233970.059: 80 FE 2B 
1764233970.059: 80 FE B3 
1764233970.059: 80 FE 8B 
1764233970.059: 80 FE 0D 
1764233970.059: 80 FE 04 
1764233970.059: 80 FE 92 
1764233970.059: 80 FE FE 
1764233970.059: 80 FE AC 
1764233970.059: 80 FD FA 
1764233970.059: 80 FD CC 
1764233970.059: 80 FE 5E 
1764233970.059: 80 FE FA 
1764233970.059: 80 FE E7 
1764233970.059: 80 FE 5C 
1764233970.059: 80 FE 30 
1764233970.059: 80 FE B0 
1764233970.059: 80 FF 36 
1764233970.059: 80 FF 0B 
1764233970.059: 80 FE 5D 
1764233970.059: 80 FE 0A 
1764233970.059: 80 FE 78 
1764233970.059: 80 FF 13 
1764233970.059: 80 FF 17 
1764233970.059: 80 FE 93 
1764233970.059: 80 FE 52 
1764233970.059: 80 FE C0 
1764233970.059: 80 FF 59 
1764233970.059: 80 FF 5A 
1764233970.059: 80 FE CA 
1764233970.090: 80 FE 76 
1764233970.090: 80 FE DF 
1764233970.090: 80 FF 8F 
1764233970.090: 80 FF BE 
1764233970.090: 80 FF 5B 
1764233970.090: 80 FF 20 
1764233970.090: 80 FF 93 
1764233970.090: 80 00 4A 
1764233970.090: 80 00 74 
1764233970.090: 80 FF F0 
1764233970.090: 80 FF 7B 
1764233970.090: 80 FF BA 
1764233970.090: 80 00 60 
1764233970.090: 80 00 9D 
1764233970.090: 80 00 35 
1764233970.090: 80 FF CA 
1764233970.090: 80 FF FF 
1764233970.090: 80 00 95 
1764233970.090: 80 00 BF 
1764233970.090: 80 00 3A 
1764233970.090: 80 FF AB 
1764233970.090: 80 FF CB 
1764233970.090: 80 00 6F 
1764233970.090: 80 00 C7 
1764233970.090: 80 00 71 
1764233970.090: 80 FF FF 
1764233970.090: 80 00 2D 
1764233970.090: 80 00 DC 
1764233970.090: 80 01 3A 
1764233970.090: 80 00 D5 
1764233970.090: 80 00 39 
1764233970.090: 80 00 35 
1764233970.090: 80 00 CD 
1764233970.090: 80 01 38 
1764233970.090: 80 00 F3 
1764233970.090: 80 00 74 
1764233970.090: 80 00 87 
1764233970.090: 80 01 34 
1764233970.090: 80 01 B1 
1764233970.122: 80 01 68 
1764233970.122: 80 00 C9 
1764233970.122: 80 00 B6 
1764233970.122: 80 01 5B 
1764233970.122: 80 01 F8 
1764233970.122: 80 01 E3 
1764233970.122: 80 01 69 
1764233970.122: 80 01 63 
1764233970.200: 80 02 0A 
1764233970.200: 80 02 A6 
1764233970.200: 80 02 85 
1764233970.200: 80 01 E9 
1764233970.200: 80 01 B4 
1764233970.200: 80 02 3E 
1764233970.200: 80 02 E4 
1764233970.200: 80 02 E5 
1764233970.200: 80 02 65 
1764233970.200: 80 02 3B 
1764233970.200: 80 02 C8 
1764233970.200: 80 03 74 
1764233970.200: 80 03 75 
1764233970.200: 80 02 E2 
1764233970.200: 80 02 92 
1764233970.200: 80 02 FF 
1764233970.200: 80 03 A9 
1764233970.200: 80 03 C1 
1764233970.200: 80 03 43 
1764233970.200: 80 02 F8 
1764233970.200: 80 03 5F 
1764233970.200: 80 04 01 
1764233970.200: 80 04 0E 
1764233970.200: 80 03 72 
1764233970.200: 80 02 F8 
1764233970.200: 80 03 39 
1764233970.200: 80 03 D7 
1764233970.200: 80 04 01 
1764233970.200: 80 03 8C 
1764233970.200: 80 03 2A 
1764233970.200: 80 03 70 
1764233970.200: 80 04 06 
1764233970.200: 80 04 1B 
1764233970.200: 80 03 7F 
1764233970.200: 80 02 E7 
1764233970.200: 80 02 FF 
1764233970.200: 80 03 85 
1764233970.200: 80 03 A6 
1764233970.200: 80 03 1E 
1764233970.231: 80 02 92 
1764233970.231: 80 02 AC 
1764233970.231: 80 03 34 
1764233970.231: 80 03 50 
1764233970.231: 80 02 AC 
1764233970.231: 02 C8 
1764233970.231: 80 01 ED 
1764233970.231: 80 01 D8 
1764233970.231: 80 02 50 
1764233970.231: 80 02 82 
1764233970.231: 80 01 FD 
1764233970.231: 80 01 4B 
1764233970.231: 80 01 32 
1764233970.231: 80 01 A8 
1764233970.231: 80 01 DD 
1764233970.231: 80 01 50 
1764233970.231: 80 00 7A 
1764233970.231: 80 00 33 
1764233970.231: 80 00 94 
1764233970.231: 80 00 DF 
1764233970.231: 80 00 81 
1764233970.231: 80 FF D5 
1764233970.231: 80 FF A5 
1764233970.231: 80 00 12 
1764233970.231: 80 00 68 
1764233970.231: 80 00 0B 
1764233970.231: 80 FF 4A 
1764233970.231: 80 FE F5 
1764233970.231: 80 FF 4A 
1764233970.231: 80 FF A6 
1764233970.231: 80 FF 64 
1764233970.309: 80 FE BC 
1764233970.309: 80 FE 77 
1764233970.309: 80 FE D8 
1764233970.309: 80 FF 40 
1764233970.309: 80 FE FE 
1764233970.309: 80 FE 45 
1764233970.309: 80 FD E7 
1764233970.309: 80 FE 43 
1764233970.309: 80 FE C7 
1764233970.309: 80 FE B7 
1764233970.309: 80 FE 28 
1764233970.309: 80 FD E2 
1764233970.309: 80 FE 49 
1764233970.309: 80 FE D4 
1764233970.309: 80 FE BF 
1764233970.309: 80 FE 16 
1764233970.309: 80 FD AA 
1764233970.309: 80 FD FE 
1764233970.309: 80 FE 9E 
1764233970.309: 80 FE BF 
1764233970.309: 80 FE 52 
1764233970.309: 80 FE 12 
1764233970.309: 80 FE 82 
1764233970.309: 80 FF 31 
1764233970.309: 80 FF 4D 
1764233970.309: 80 FE B8 
1764233970.309: 80 FE 39 
1764233970.309: 80 FE 75 
1764233970.340: 80 FF 1A 
1764233970.340: 80 FF 55 
1764233970.340: 80 FE EC 
1764233970.340: 80 FE 8F 
1764233970.340: 80 FE E1 
1764233970.340: 80 FF 9C 
1764233970.340: 80 FF E5 
1764233970.340: 80 FF 70 
1764233970.340: 80 FE E9 
1764233970.340: 80 FF 0C 
1764233970.340: 80 FF B1 
1764233970.340: 80 00 04 
1764233970.340: 80 FF A6 
1764233970.340: 80 FF 2B 
1764233970.340: 80 FF 4C 
1764233970.340: 80 FF EB 
1764233970.340: 80 00 35 
1764233970.340: 80 FF BD 
1764233970.340: 80 FF 17 
1764233970.340: 80 FF 10 
1764233970.340: 80 FF A4 
1764233970.340: 80 00 08 
1764233970.340: 80 FF B9 
1764233970.340: 80 FF 2D 
1764233970.372: 80 FF 2B 
1764233970.372: 80 FF BA 
1764233970.372: 80 00 14 
1764233970.372: 80 FF B0 
1764233970.372: 80 FF 00 
1764233970.372: 80 FE DB 
1764233970.372: 80 FF 61 
1764233970.372: 80 FF D9 
1764233970.450: 80 FF A6 
1764233970.450: 80 FF 1B 
1764233970.450: 80 FF 06 
1764233970.450: 80 FF 92 
1764233970.450: 80 00 0A 
1764233970.450: 80 FF C8 
1764233970.450: 80 FF 18 
1764233970.450: 80 FE D4 
1764233970.450: 80 FF 48 
1764233970.450: 80 FF CD 
1764233970.450: 80 FF AE 
1764233970.450: 80 FF 17 
1764233970.450: 80 FE DA 
1764233970.450: 80 FF 4D 
1764233970.450: 80 FF D7 
1764233970.450: 80 FF B9 
1764233970.450: 80 FF 0F 
1764233970.450: 80 FE AF 
1764233970.450: 80 FF 0F 
1764233970.450: 80 FF AB 
1764233970.450: 80 FF BD 
1764233970.450: 80 FF 42 
1764233970.450: 80 FE FB 
1764233970.450: 80 FF 5E 
1764233970.450: 80 FF F4 
1764233970.450: 80 FF F2 
1764233970.450: 80 FF 53 
1764233970.450: 80 FE DE 
1764233970.450: 80 FF 20 
1764233970.450: 80 FF B2 
1764233970.450: 80 FF C7 
1764233970.450: 80 FF 43 
1764233970.450: 80 FE E1 
1764233970.450: 80 FF 32 
1764233970.450: 80 FF D3 
1764233970.450: 80 FF EB 
1764233970.450: 80 FF 52 
1764233970.450: 80 FE CA 
1764233970.450: 80 FE FC 
1764233970.450: 80 FF 9D 
1764233970.450: 80 FF D1 
1764233970.450: 80 FF 55 
1764233970.450: 80 FE DA 
1764233970.450: 80 FF 0E 
1764233970.450: 80 FF B4 
1764233970.450: 80 FF EE 
1764233970.450: 80 FF 65 
1764233970.669: 80 FE C4 
1764233970.700: 80 FE D1 
1764233970.700: 80 FF 6C 
1764233970.700: 80 FF BE 
1764233970.700: 80 FF 5B 
1764233970.700: 80 FE D0 
1764233970.700: 80 FE DE 
1764233970.700: 80 FF 6E 
1764233970.700: 80 FF B0 
1764233970.700: 80 FF 31 
1764233970.700: 80 FE 7E 
1764233970.700: 80 FE 69 
1764233970.700: 80 FE F6 
1764233970.700: 80 FF 59 
1764233970.700: 80 FF 0B 
1764233970.700: 80 FE 7E 
1764233970.700: 80 FE 81 
1764233970.700: 80 FF 1D 
1764233970.700: 80 FF 86 
1764233970.700: 80 FF 26 
1764233970.700: 80 FE 69 
1764233970.700: 80 FE 31 
1764233970.700: 80 FE AB 
1764233970.700: 80 FF 1D 
1764233970.700: 80 FE E1 
1764233970.700: 80 FE 4A 
1764233970.700: 80 FE 2E 
1764233970.700: 80 FE C2 
1764233970.700: 80 FF 4B 
1764233970.700: 80 FF 13 
1764233970.700: 80 FE 5E 
1764233970.700: 80 FE 14 
1764233970.700: 80 FE 91 
1764233970.700: 80 FF 2E 
1764233970.700: 80 FF 23 
1764233970.700: 80 FE 91 
1764233970.700: 80 FE 52 
1764233970.700: 80 FE CE 
1764233970.700: 80 FF 70 
1764233970.700: 80 FF 67 
1764233970.700: 80 FE C3 
1764233970.700: 80 FE 5F 
1764233970.700: 80 FE BD 
1764233970.700: 80 FF 5E 
1764233970.700: 80 FF 70 
1764233970.700: 80 FE E6 
1764233970.700: 80 FE 8C 
1764233970.700: 80 FE EA 
1764233970.700: 80 FF 8B 
1764233970.700: 80 FF 95 
1764233970.700: 80 FE EF 
1764233970.700: 80 FE 66 
1764233970.700: 80 FE A2 
1764233970.700: 80 FF 4B 
1764233970.700: 80 FF 84 
1764233970.700: 80 FF 13 
1764233970.700: 80 FE AC 
1764233970.700: 80 FE F4 
1764233970.700: 80 FF 9D 
1764233970.700: 80 FF CE 
1764233970.700: 80 FF 44 
1764233970.700: 80 FE B4 
1764233970.700: 80 FE D5 
1764233970.700: 80 FF 75 
1764233970.700: 80 FF B9 
1764233970.731: 80 FF 4A 
1764233970.731: 80 FE CA 
1764233970.731: 80 FE F5 
1764233970.731: 80 FF A5 
1764233970.731: 80 FF FD 
1764233970.731: 80 FF 91 
1764233970.731: 80 FE F6 
1764233970.731: 80 FF 00 
1764233970.731: 80 FF AB 
1764233970.731: 80 00 25 
1764233970.731: 80 FF EA 
1764233970.731: 80 FF 6F 
1764233970.731: 80 FF 7C 
1764233970.731: 80 00 17 
1764233970.731: 80 00 7A 
1764233970.731: 80 00 21 
1764233970.731: 80 FF 7D 
1764233970.731: 80 FF 65 
1764233970.731: 80 FF F4 
1764233970.731: 80 00 6D 
1764233970.731: 80 00 39 
1764233970.731: 80 FF B4 
1764233970.731: 80 FF AA 
1764233970.731: 80 00 3F 
1764233970.731: 80 00 B6 
1764233970.731: 80 00 6F 
1764233970.731: 80 FF C1 
1764233970.731: 80 FF 8A 
1764233970.731: 80 00 0A 
1764233970.731: 80 00 94 
1764233970.731: 80 00 79 
1764233970.731: 80 FF F2 
1764233970.731: 80 FF D2 
1764233970.731: 80 00 5F 
1764233970.731: 80 00 F0 
1764233970.731: 80 00 CD 
1764233970.731: 80 00 28 
1764233970.731: 80 FF DC 
1764233970.731: 80 00 50 
1764233970.731: 80 00 F1 
1764233970.731: 80 00 FA 
1764233970.731: 80 00 7F 
1764233970.731: 80 00 4C 
1764233970.731: 80 00 C8 
1764233970.731: 80 01 6A 
1764233970.731: 80 01 69 
1764233970.731: 80 00 CD 
1764233970.731: 80 00 6D 
1764233970.731: 80 00 CF 
1764233970.731: 80 01 7E 
1764233970.731: 80 01 A7 
1764233970.731: 80 01 37 
1764233970.762: 80 00 F0 
1764233970.762: 80 01 5C 
1764233970.762: 80 02 0D 
1764233970.762: 80 02 29 
1764233970.762: 80 01 8B 
1764233970.762: 80 00 F6 
1764233970.762: 80 01 14 
1764233970.762: 80 01 98 
1764233970.762: 80 01 AF 
1764233970.762: 80 01 1E 
1764233970.762: 80 00 96 
1764233970.762: 80 00 C2 
1764233970.762: 80 01 5D 
1764233970.762: 80 01 8A 
1764233970.762: 80 00 FB 
1764233970.762: 80 00 5D 
1764233970.762: 80 00 70 
1764233970.762: 80 01 0D 
1764233970.762: 80 01 5D 
1764233970.762: 80 00 F2 
1764233970.762: 80 00 5B 
1764233970.762: 80 00 58 
1764233970.762: 80 00 D6 
1764233970.762: 80 01 0A 
1764233970.762: 80 00 83 
1764233970.762: 80 FF C4 
1764233970.762: 80 FF 9B 
1764233970.762: 80 00 0E 
1764233970.762: 80 00 60 
1764233970.762: 80 00 0E 
1764233970.762: 80 FF 85 
1764233970.762: 80 FF 86 
1764233970.762: 80 00 1B 
1764233970.762: 80 00 84 
1764233970.762: 80 00 32 
1764233970.762: 80 FF 8E 
1764233970.762: 80 FF 6B 
1764233970.762: 80 FF F5 
1764233970.762: 80 00 76 
1764233970.794: 80 00 4F 
1764233970.794: 80 FF CB 
1764233970.794: 80 FF B1 
1764233970.794: 80 00 2C 
1764233970.794: 80 00 90 
1764233970.794: 80 00 3A 
1764233970.794: 80 FF 7B 
1764233970.794: 80 FF 2E 
1764233970.825: 80 FF A2 
1764233970.825: 80 00 3A 
1764233970.825: 80 00 4E 
1764233970.825: 80 00 14 
1764233970.825: 80 00 5D 
1764233970.825: 80 01 83 
1764233970.825: 80 02 F9 
1764233970.825: 80 04 0D 
1764233970.825: 80 04 CC 
1764233970.825: 80 05 E1 
1764233970.825: 80 07 A1 
1764233970.825: 80 09 9B 
1764233970.825: 80 0B 37 
1764233970.825: 80 0C 77 
1764233970.825: 80 0D D2 
1764233970.825: 86 03 7F 
1764233970.825: 03 43 
1764233970.825: 80 0F 52 
1764233970.825: 80 10 4B 
1764233970.825: 80 10 14 
1764233970.825: 80 0E DF 
1764233970.825: 80 0D 80 
1764233970.825: 80 0C 5F 
1764233970.825: 80 0A FA 
1764233970.825: 80 08 A9 
1764233970.825: 80 05 A6 
1764233970.825: 80 03 06 
1764233970.825: 80 01 8E 
1764233970.825: 80 00 E7 
1764233970.825: 80 00 2B 
1764233970.825: 80 FF 1A 
1764233970.825: 80 FE 65 
1764233970.997: 80 FE AF 
1764233970.997: 80 FF 9E 
1764233970.997: 80 00 38 
1764233970.997: 80 00 0F 
1764233970.997: 80 FF B2 
1764233970.997: 80 FF D1 
1764233970.997: 80 00 43 
1764233970.997: 80 00 3C 
1764233970.997: 80 FF 6C 
1764233970.997: 80 FE 84 
1764233970.997: 80 FE 5C 
1764233970.997: 80 FE E6 
1764233970.997: 80 FF 47 
1764233970.997: 80 FE FE 
1764233970.997: 80 FE 85 
1764233970.997: 80 FE 9D 
1764233970.997: 80 FF 3D 
1764233970.997: 80 FF 95 
1764233970.997: 80 FF 24 
1764233970.997: 80 FE 6A 
1764233970.997: 80 FE 43 
1764233970.997: 80 FE CB 
1764233970.997: 80 FF 42 
1764233970.997: 80 FF 11 
1764233970.997: 80 FE 94 
1764233970.997: 80 FE 94 
1764233970.997: 80 FF 2B 
1764233970.997: 80 FF 98 
1764233970.997: 80 FF 3F 
1764233970.997: 80 FE 7D 
1764233970.997: 80 FE 37 
1764233970.997: 80 FE B0 
1764233970.997: 80 FF 38 
1764233970.997: 80 FF 1D 
1764233970.997: 80 FE 95 
1764233970.997: 80 FE 72 
1764233970.997: 80 FE FD 
1764233970.997: 80 FF 8F 
1764233970.997: 80 FF 6F 
1764233970.997: 80 FE CE 
1764233970.997: 80 FE 8A 
1764233970.997: 80 FF 06 
1764233970.997: 80 FF AB 
1764233970.997: 80 FF B2 
1764233970.997: 80 FF 33 
1764233970.997: 80 FE FE 
1764233970.997: 80 FF 80 
1764233970.997: 80 00 28 
1764233970.997: 80 00 2A 
1764233970.997: 80 FF 8D 
1764233970.997: 80 FF 28 
1764233970.997: 80 FF 87 
1764233970.997: 80 00 35 
1764233970.997: 80 00 61 
1764233970.997: 80 FF F1 
1764233970.997: 80 FF A5 
1764233970.997: 80 00 02 
1764233970.997: 80 00 9F 
1764233970.997: 80 00 A9 
1764233970.997: 80 00 02 
1764233970.997: 80 FF 6F 
1764233970.997: 80 FF 94 
1764233970.997: 80 00 23 
1764233970.997: 80 00 47 
1764233971.028: 80 FF CA 
1764233971.028: 80 FF 59 
1764233971.028: 80 FF 96 
1764233971.028: 80 00 3B 
1764233971.028: 80 00 73 
1764233971.028: 80 FF F5 
1764233971.028: 80 FF 6C 
1764233971.028: 80 FF 8C 
1764233971.028: 80 00 2D 
1764233971.028: 80 00 7D 
1764233971.028: 80 00 23 
1764233971.028: 80 FF B2 
1764233971.028: 80 FF DD 
1764233971.137: 80 00 82 
1764233971.169: 80 00 D3 
1764233971.169: 80 00 6B 
1764233971.169: 80 FF DB 
1764233971.169: 80 FF E9 
1764233971.169: 80 00 89 
1764233971.169: 80 00 F6 
1764233971.169: 80 00 B9 
1764233971.169: 80 00 4B 
1764233971.169: 80 00 6A 
1764233971.169: 80 01 12 
1764233971.169: 80 01 7D 
1764233971.169: 80 01 2F 
1764233971.169: 80 00 A0 
1764233971.169: 80 00 9F 
1764233971.169: 80 01 41 
1764233971.169: 80 01 C7 
1764233971.169: 80 01 A2 
1764233971.169: 80 01 35 
1764233971.169: 80 01 4F 
1764233971.169: 80 02 0A 
1764233971.169: 80 02 A1 
1764233971.169: 80 02 72 
1764233971.169: 80 01 D7 
1764233971.169: 80 01 B2 
1764233971.169: 80 02 46 
1764233971.169: 80 02 E0 
1764233971.169: 80 02 CF 
1764233971.169: 80 02 4C 
1764233971.169: 80 02 2D 
1764233971.169: 80 02 BE 
1764233971.169: 80 03 54 
1764233971.169: 80 03 34 
1764233971.169: 80 02 8C 
1764233971.169: 80 02 3F 
1764233971.169: 80 02 B7 
1764233971.169: 80 03 5C 
1764233971.169: 80 03 62 
1764233971.169: 80 02 D5 
1764233971.169: 80 02 8D 
1764233971.169: 80 03 02 
1764233971.169: 80 03 AC 
1764233971.169: 80 03 B6 
1764233971.169: 80 03 15 
1764233971.169: 80 02 9D 
1764233971.169: 80 02 E2 
1764233971.169: 80 03 7E 
1764233971.169: 80 03 9E 
1764233971.169: 80 03 1F 
1764233971.169: 80 02 BA 
1764233971.169: 80 03 00 
1764233971.169: 80 03 91 
1764233971.169: 80 03 97 
1764233971.169: 80 02 E6 
1764233971.169: 80 02 3C 
1764233971.169: 80 02 45 
1764233971.169: 80 02 BB 
1764233971.169: 80 02 CB 
1764233971.169: 80 02 35 
1764233971.169: 80 01 9F 
1764233971.169: 80 01 B2 
1764233971.169: 80 02 2C 
1764233971.169: 80 02 3A 
1764233971.169: 80 01 8E 
1764233971.169: 80 00 D2 
1764233971.200: 80 00 C3 
1764233971.200: 80 01 3B 
1764233971.200: 80 01 64 
1764233971.200: 80 00 DA 
1764233971.200: 80 00 31 
1764233971.200: 80 00 28 
1764233971.200: 80 00 A8 
1764233971.200: 80 00 E0 
1764233971.200: 80 00 5D 
1764233971.200: 80 FF A4 
1764233971.200: 80 FF 83 
1764233971.200: 80 FF FF 
1764233971.200: 80 00 54 
1764233971.200: 80 00 00 
1764233971.200: 80 FF 71 
1764233971.200: 80 FF 6B 
1764233971.200: 80 FF F8 
1764233971.200: 80 00 53 
1764233971.200: 80 FF EF 
1764233971.200: 80 FF 3C 
1764233971.200: 80 FF 14 
1764233971.387: 80 FF A0 
1764233971.387: 80 00 22 
1764233971.387: 80 FF F6 
1764233971.387: 80 FF 67 
1764233971.387: 80 FF 48 
1764233971.387: 80 FF D1 
1764233971.387: 80 00 50 
1764233971.387: 80 00 15 
1764233971.387: 80 FF 61 
1764233971.387: 80 FF 15 
1764233971.387: 80 FF 83 
1764233971.387: 80 00 0D 
1764233971.387: 80 FF F7 
1764233971.387: 80 FF 68 
1764233971.387: 80 FF 2F 
1764233971.387: 80 FF A8 
1764233971.387: 80 00 39 
1764233971.387: 80 00 1D 
1764233971.387: 80 FF 6D 
1764233971.387: 80 FF 06 
1764233971.387: 80 FF 61 
1764233971.387: 80 FF FB 
1764233971.387: 80 00 07 
1764233971.387: 02 C8 
1764233971.387: 80 FF 81 
1764233971.387: 80 FF 32 
1764233971.387: 80 FF 98 
1764233971.387: 80 00 37 
1764233971.387: 80 00 3E 
1764233971.387: 80 FF 9D 
1764233971.387: 80 FF 1D 
1764233971.387: 80 FF 58 
1764233971.387: 80 FF F2 
1764233971.387: 80 00 16 
1764233971.387: 80 FF 97 
1764233971.387: 80 FF 2A 
1764233971.387: 80 FF 6C 
1764233971.387: 80 00 0C 
1764233971.387: 80 00 34 
1764233971.387: 80 FF A6 
1764233971.387: 80 FF 12 
1764233971.387: 80 FF 2D 
1764233971.387: 80 FF C3 
1764233971.387: 80 00 02 
1764233971.387: 80 FF 91 
1764233971.387: 80 FF 0C 
1764233971.387: 80 FF 2A 
1764233971.387: 80 FF C7 
1764233971.387: 80 00 0F 
1764233971.387: 80 FF 98 
1764233971.387: 80 FE F4 
1764233971.387: 80 FE EE 
1764233971.387: 80 FF 81 
1764233971.387: 80 FF E4 
1764233971.387: 80 FF 9A 
1764233971.387: 80 FF 1B 
1764233971.387: 80 FF 27 
1764233971.387: 80 FF BC 
1764233971.387: 80 00 10 
1764233971.387: 80 FF A5 
1764233971.387: 80 FE F8 
1764233971.387: 80 FE E1 
1764233971.419: 80 FF 72 
1764233971.419: 80 FF E2 
1764233971.419: 80 FF 99 
1764233971.419: 80 FF 00 
1764233971.419: 80 FE F1 
1764233971.419: 80 FF 8C 
1764233971.419: 80 00 07 
1764233971.419: 80 FF B7 
1764233971.419: 80 FE F5 
1764233971.419: 80 FE AA 
1764233971.419: 80 FF 21 
1764233971.419: 80 FF AA 
1764233971.419: 80 FF 8C 
1764233971.419: 80 FE FB 
1764233971.419: 80 FE CA 
1764233971.419: 80 FF 47 
1764233971.419: 80 FF CD 
1764233971.419: 80 FF A3 
1764233971.419: 80 FE F4 
1764233971.419: 80 FE 9A 
1764233971.419: 80 FE F9 
1764233971.419: 80 FF 82 
1764233971.419: 80 FF 77 
1764233971.419: 80 FE EA 
1764233971.419: 80 FE A7 
1764233971.419: 80 FF 15 
1764233971.419: 80 FF AB 
1764233971.419: 80 FF A0 
1764233971.419: 80 FE FE 
1764233971.419: 80 FE 93 
1764233971.419: 80 FE E4 
1764233971.419: 80 FF 7B 
1764233971.419: 80 FF 8D 
1764233971.419: 80 FF 08 
1764233971.419: 80 FE AE 
1764233971.419: 80 FF 09 
1764233971.419: 80 FF AA 
1764233971.419: 80 FF BB 
1764233971.419: 80 FF 1B 
1764233971.419: 80 FE 95 
1764233971.419: 80 FE D1 
1764233971.419: 80 FF 7C 
1764233971.419: 80 FF B4 
1764233971.419: 80 FF 36 
1764233971.419: 80 FE B6 
1764233971.419: 80 FE E6 
1764233971.419: 80 FF 8A 
1764233971.419: 80 FF C0 
1764233971.419: 80 FF 36 
1764233971.419: 80 FE 95 
1764233971.419: 80 FE A4 
1764233971.419: 80 FF 44 
1764233971.419: 80 FF 9F 
1764233971.450: 80 FF 4A 
1764233971.450: 80 FE D2 
1764233971.450: 80 FE F6 
1764233971.450: 80 FF 9C 
1764233971.450: 80 FF F0 
1764233971.450: 80 FF 82 
1764233971.450: 80 FE DF 
1764233971.450: 80 FE D7 
1764233971.450: 80 FF 6C 
1764233971.450: 80 FF D5 
1764233971.450: 80 FF 8D 
1764233971.450: 80 FF 0B 
1764233971.450: 80 FF 18 
1764233971.450: 80 FF BC 
1764233971.450: 80 00 2D 
1764233971.450: 80 FF DB 
1764233971.450: 80 FF 35 
1764233971.450: 80 FF 16 
1764233971.450: 80 FF A6 
1764233971.450: 80 00 2A 
1764233971.450: 80 FF FF 
1764233971.450: 80 FF 76 
1764233971.450: 80 FF 61 
1764233971.450: 80 FF F2 
1764233971.450: 80 00 76 
1764233971.450: 80 00 45 
1764233971.450: 80 FF A1 
1764233971.450: 80 FF 64 
1764233971.544: 80 FF DC 
1764233971.544: 80 00 6B 
1764233971.544: 80 00 5F 
1764233971.544: 80 FF E4 
1764233971.544: 80 FF C2 
1764233971.544: 80 00 49 
1764233971.544: 80 00 DD 
1764233971.544: 80 00 C3 
1764233971.544: 80 00 1E 
1764233971.544: 80 FF C4 
1764233971.544: 80 00 22 
1764233971.544: 80 00 B1 
1764233971.544: 80 00 AF 
1764233971.544: 80 00 26 
1764233971.544: 80 FF DC 
1764233971.544: 80 00 43 
1764233971.544: 80 00 DA 
1764233971.544: 80 00 D6 
1764233971.544: 80 00 36 
1764233971.544: 80 FF C9 
1764233971.544: 80 00 19 
1764233971.544: 80 00 B7 
1764233971.544: 80 00 D1 
1764233971.544: 80 00 4A 
1764233971.544: 80 FF E0 
1764233971.544: 80 00 2A 
1764233971.544: 80 00 C7 
1764233971.544: 80 00 DE 
1764233971.544: 80 00 3F 
1764233971.544: 80 FF AD 
1764233971.544: 80 FF D8 
1764233971.544: 80 00 7E 
1764233971.544: 80 00 C6 
1764233971.544: 80 00 60 
1764233971.544: 80 FF EF 
1764233971.544: 80 00 23 
1764233971.544: 80 00 CB 
1764233971.544: 80 01 0F 
1764233971.544: 80 00 92 
1764233971.544: 80 FF F3 
1764233971.544: 80 FF F9 
1764233971.544: 80 00 91 
1764233971.544: 80 00 EE 
1764233971.544: 80 00 9D 
1764233971.544: 80 00 20 
1764233971.544: 80 00 36 
1764233971.722: 80 00 D1 
1764233971.768: 80 01 29 
1764233971.768: 80 00 C4 
1764233971.768: 80 00 25 
1764233971.768: 80 00 20 
1764233971.768: 80 00 BF 
1764233971.768: 80 01 3B 
1764233971.768: 80 01 04 
1764233971.768: 80 00 86 
1764233971.768: 80 00 90 
1764233971.768: 80 01 39 
1764233971.768: 80 01 BA 
1764233971.768: 80 01 77 
1764233971.768: 80 00 D1 
1764233971.768: 80 00 A9 
1764233971.768: 80 01 38 
1764233971.768: 80 01 C8 
1764233971.768: 80 01 AC 
1764233971.768: 80 01 26 
1764233971.768: 80 01 09 
1764233971.768: 80 01 95 
1764233971.768: 80 02 1B 
1764233971.768: 80 01 E5 
1764233971.768: 80 01 2D 
1764233971.768: 80 00 D4 
1764233971.768: 80 01 3A 
1764233971.768: 80 01 C1 
1764233971.768: 80 01 A6 
1764233971.768: 80 01 06 
1764233971.768: 80 00 B7 
1764233971.768: 80 01 22 
1764233971.768: 80 01 B2 
1764233971.768: 80 01 99 
1764233971.768: 80 00 E3 
1764233971.768: 80 00 69 
1764233971.768: 80 00 B2 
1764233971.768: 80 01 3D 
1764233971.768: 80 01 39 
1764233971.768: 80 00 97 
1764233971.768: 80 00 22 
1764233971.768: 80 00 62 
1764233971.768: 80 00 E5 
1764233971.768: 80 00 D3 
1764233971.768: 80 00 13 
1764233971.768: 80 FF 76 
1764233971.768: 80 FF A0 
1764233971.768: 80 00 37 
1764233971.768: 80 00 61 
1764233971.768: 80 FF E3 
1764233971.768: 80 FF 70 
1764233971.768: 80 FF AF 
1764233971.768: 80 00 54 
1764233971.768: 80 00 88 
1764233971.768: 80 00 02 
1764233971.768: 80 FF 6F 
1764233971.768: 80 FF 8A 
1764233971.768: 80 00 2B 
1764233971.768: 80 00 80 
1764233971.768: 80 00 27 
1764233971.768: 80 FF A7 
1764233971.768: 80 FF AE 
1764233971.768: 80 00 23 
1764233971.768: 80 00 4E 
1764233971.768: 80 FF D3 
1764233971.768: 80 FF 3A 
1764233971.800: 80 FF 44 
1764233971.800: 80 FF EF 
1764233971.800: 80 00 8E 
1764233971.800: 80 00 B9 
1764233971.800: 80 00 ED 
1764233971.800: 80 01 F0 
1764233971.800: 80 03 C3 
1764233971.800: 80 05 91 
1764233971.800: 80 06 AE 
1764233971.800: 80 07 71 
1764233971.800: 80 08 BA 
1764233971.800: 80 0A D3 
1764233971.800: 80 0D 0A 
1764233971.800: 80 0E 80 
1764233971.800: 86 03 65 
1764233971.800: 03 45 
1764233971.800: 80 0F 1C 
1764233971.800: 80 0F 6D 
1764233971.800: 80 0F BB 
1764233971.800: 80 0F 95 
1764233971.800: 80 0E 69 
1764233971.800: 80 0C 58 
1764233971.800: 80 0A 13 
1764233971.800: 80 08 06 
1764233971.800: 80 05 F6 
1764233971.800: 80 03 99 
1764233971.800: 80 01 4B 
1764233971.800: 80 FF D3 
1764233971.800: 80 FF 6C 
1764233971.800: 80 FF 74 
1764233971.800: 80 FF 34 
1764233971.800: 80 FE C3 
1764233971.800: 80 FE D3 
1764233971.800: 80 FF 9E 
1764233971.800: 80 00 76 
1764233971.800: 80 00 8A 
1764233971.800: 80 FF EC 
1764233971.800: 80 FF 70 
1764233971.800: 80 FF 8F 
1764233971.800: 80 FF CC 
1764233971.800: 80 FF 6B 
1764233971.800: 80 FE 83 
1764233971.800: 80 FD F3 
1764233971.800: 80 FE 46 
1764233971.800: 80 FE FC 
1764233971.800: 80 FF 32 
1764233971.800: 80 FE C2 
1764233971.800: 80 FE 6C 
1764233971.800: 80 FE C4 
1764233971.800: 80 FF 64 
1764233971.800: 80 FF 73 
1764233971.800: 80 FE CD 
1764233971.800: 80 FE 3E 
1764233971.800: 80 FE 7A 
1764233971.800: 80 FF 34 
1764233971.800: 80 FF 88 
1764233971.800: 80 FF 28 
1764233971.800: 80 FE BA 
1764233971.800: 80 FE F1 
1764233971.800: 80 FF 93 
1764233971.800: 80 FF CA 
1764233971.800: 80 FF 44 
1764233971.800: 80 FE A9 
1764233971.800: 80 FE BC 
1764233971.800: 80 FF 60 
1764233971.800: 80 FF C2 
1764233971.831: 80 FF 78 
1764233971.831: 80 FF 0D 
1764233971.831: 80 FF 3E 
1764233971.831: 80 FF F5 
1764233971.831: 80 00 61 
1764233971.831: 80 00 0E 
1764233971.831: 80 FF 82 
1764233971.831: 80 FF 8C 
1764233971.831: 80 00 37 
1764233971.831: 80 00 BD 
1764233971.831: 80 00 95 
1764233971.831: 80 00 28 
1764233971.831: 80 00 3D 
1764233971.831: 80 00 E5 
1764233971.831: 80 01 60 
1764233971.831: 80 01 1C 
1764233971.831: 80 00 7F 
1764233971.831: 80 00 61 
1764233971.831: 80 00 EE 
1764233971.831: 80 01 71 
1764233971.831: 80 01 46 
1764233971.831: 80 00 B7 
1764233971.831: 80 00 93 
1764233971.925: 80 01 17 
1764233971.925: 80 01 99 
1764233971.925: 80 01 6A 
1764233971.925: 80 00 C6 
1764233971.925: 80 00 83 
1764233971.925: 80 00 F8 
1764233971.925: 80 01 89 
1764233971.925: 80 01 81 
1764233971.925: 80 01 01 
1764233971.925: 80 00 D5 
1764233971.925: 80 01 55 
1764233971.925: 80 01 EC 
1764233971.925: 80 01 D6 
1764233971.925: 80 01 2B 
1764233971.925: 80 00 C2 
1764233971.925: 80 01 19 
1764233971.925: 80 01 B3 
1764233971.925: 80 01 C6 
1764233971.925: 80 01 47 
1764233971.925: 80 00 F9 
1764233971.925: 80 01 5B 
1764233971.925: 80 01 FB 
1764233971.925: 80 02 0D 
1764233971.925: 80 01 7F 
1764233971.925: 80 01 15 
1764233971.925: 80 01 60 
1764233971.925: 80 02 02 
1764233971.925: 80 02 2E 
1764233971.925: 80 01 C1 
1764233971.925: 80 01 71 
1764233971.925: 80 01 D0 
1764233971.925: 80 02 81 
1764233971.925: 80 02 B2 
1764233971.925: 80 02 31 
1764233971.925: 80 01 BB 
1764233971.925: 80 01 FB 
1764233971.925: 80 02 B0 
1764233971.925: 80 03 05 
1764233971.925: 80 02 B1 
1764233972.003: 80 02 57 
1764233972.003: 80 02 A2 
1764233972.003: 80 03 5A 
1764233972.003: 80 03 AB 
1764233972.003: 80 03 3E 
1764233972.003: 80 02 B3 
1764233972.003: 80 02 D0 
1764233972.003: 80 03 79 
1764233972.003: 80 03 E0 
1764233972.003: 80 03 94 
1764233972.003: 80 03 20 
1764233972.003: 80 03 45 
1764233972.003: 80 03 F5 
1764233972.003: 80 04 5E 
1764233972.003: 80 03 FF 
1764233972.003: 80 03 5B 
1764233972.003: 80 03 4C 
1764233972.003: 80 03 E7 
1764233972.003: 80 04 6B 
1764233972.003: 80 04 3F 
1764233972.003: 80 03 C2 
1764233972.003: 80 03 BE 
1764233972.003: 80 04 54 
1764233972.003: 80 04 CC 
1764233972.003: 80 04 88 
1764233972.003: 80 03 DF 
1764233972.003: 80 03 A9 
1764233972.003: 80 04 21 
1764233972.003: 80 04 9B 
1764233972.003: 80 04 6A 
1764233972.003: 80 03 CC 
1764233972.003: 80 03 93 
1764233972.003: 80 04 02 
1764233972.003: 80 04 73 
1764233972.003: 80 04 2C 
1764233972.003: 80 03 5F 
1764233972.003: 80 02 E8 
1764233972.003: 80 03 2B 
1764233972.003: 80 03 95 
1764233972.065: 80 03 65 
1764233972.065: 80 02 B2 
1764233972.065: 80 02 47 
1764233972.065: 80 02 8A 
1764233972.065: 80 02 EE 
1764233972.065: 80 02 AA 
1764233972.065: 80 01 CD 
1764233972.065: 80 01 30 
1764233972.065: 80 01 5A 
1764233972.065: 80 01 CD 
1764233972.065: 80 01 B7 
1764233972.065: 80 01 07 
1764233972.065: 80 00 86 
1764233972.065: 80 00 BF 
1764233972.065: 80 01 46 
