timestamp: ADC HeartRate4sAverage HeartRate30sAverage
1764233963.336:   -424  79  78
1764233963.336:   -388  79  78
1764233963.336:   -508  79  78
1764233963.336:   -590  79  78
1764233963.336:   -493  79  78
1764233963.336:   -325  79  78
1764233963.336:   -301  79  78
1764233963.336:   -457  79  78
1764233963.336:   -592  79  78
1764233963.336:   -536  79  78
1764233963.336:   -370  79  78
1764233963.336:   -312  79  78
1764233963.336:   -428  79  78
1764233963.336:   -541  79  78
1764233963.336:   -481  79  78
1764233963.336:   -315  79  78
1764233963.336:   -260  79  78
1764233963.336:   -395  79  78
1764233963.336:   -546  79  78
1764233963.336:   -522  79  78
1764233963.336:   -365  79  78
1764233963.336:   -289  79  78
1764233963.336:   -392  79  78
1764233963.336:   -524  79  78
1764233963.336:   -490  79  78
1764233963.336:   -323  79  78
1764233963.336:   -241  79  78
1764233963.336:   -358  79  78
1764233963.336:   -526  79  78
1764233963.336:   -530  79  78
1764233963.336:   -370  79  78
1764233963.336:   -257  79  78
1764233963.336:   -331  79  78
1764233963.336:   -471  79  78
1764233963.336:   -463  79  78
1764233963.336:   -291  79  78
1764233963.336:   -165  79  78
1764233963.336:   -244  79  78
1764233963.336:   -422  79  78
1764233963.336:   -467  79  78
1764233963.336:   -326  79  78
1764233963.336:   -188  79  78
1764233963.336:   -229  79  78
1764233963.336:   -372  79  78
1764233963.336:   -402  79  78
1764233963.336:   -256  79  78
1764233963.336:   -116  79  78
1764233963.336:   -165  79  78
1764233963.336:   -339  79  78
1764233963.336:   -407  79  78
1764233963.336:   -279  79  78
1764233963.336:   -120  79  78
1764233963.336:   -126  79  78
1764233963.336:   -265  79  78
1764233963.336:   -320  79  78
1764233963.336:   -190  79  78
1764233963.336:    -27  79  78
1764233963.336:    -34  79  78
1764233963.336:   -196  79  78
1764233963.336:   -295  79  78
1764233963.336:   -205  79  78
1764233963.336:    -49  79  78
1764233963.336:    -33  79  78
1764233963.336:   -164  79  78
1764233963.367:   -244  79  78
1764233963.367:   -144  79  78
1764233963.367:     18  79  78
1764233963.367:     33  79  78
1764233963.367:   -118  79  78
1764233963.367:   -234  79  78
1764233963.367:   -162  79  78
1764233963.367:      2  79  78
1764233963.367:     48  79  78
1764233963.367:    -69  79  78
1764233963.367:   -165  79  78
1764233963.367:    -86  79  78
1764233963.367:     80  79  78
1764233963.367:    116  79  78
1764233963.367:    -32  79  78
1764233963.367:   -176  79  78
1764233963.367:   -135  79  78
1764233963.367:     27  79  78
1764233963.367:     91  79  78
1764233963.367:    -20  79  78
1764233963.367:   -140  79  78
1764233963.367:    -86  79  78
1764233963.367:     87  79  78
1764233963.367:    155  79  78
1764233963.367:     25  79  78
1764233963.367:   -135  79  78
1764233963.367:   -118  79  78
1764233963.367:     47  79  78
1764233963.367:    140  79  78
1764233963.367:     39  79  78
1764233963.367:   -108  79  78
1764233963.367:    -92  79  78
1764233963.367:     78  79  78
1764233963.367:    177  79  78
1764233963.367:     68  79  78
1764233963.367:   -117  79  78
1764233963.367:   -145  79  78
1764233963.367:     10  79  78
1764233963.367:    140  79  78
1764233963.367:     82  79  78
1764233963.367:    -62  79  78
1764233963.367:    -71  79  78
1764233963.367:     93  79  78
1764233963.367:    229  79  78
1764233963.367:    163  79  78
1764233963.367:    -16  79  78
1764233963.367:    -73  79  78
1764233963.367:     66  79  78
1764233963.367:    219  79  78
1764233963.367:    198  79  78
1764233963.367:     56  79  78
1764233963.367:     14  79  78
1764233963.367:    155  79  78
1764233963.367:    313  79  78
1764233963.367:    291  79  78
1764233963.367:    129  79  78
1764233963.367:     51  79  78
1764233963.367:    167  79  78
1764233963.367:    333  79  78
1764233963.367:    347  79  78
1764233963.367:    226  79  78
1764233963.399:    179  79  78
1764233963.399:    317  79  78
1764233963.399:    496  79  78
1764233963.399:    507  79  78
1764233963.399:    357  79  78
1764233963.399:    269  79  78
1764233963.399:    384  79  78
1764233963.399:    579  79  78
1764233963.399:    627  79  78
1764233963.399:    503  79  78
1764233963.399:    420  79  78
1764233963.399:    532  79  78
1764233963.399:    732  79  78
1764233963.399:    782  79  78
1764233963.399:    632  79  78
1764233963.399:    485  79  78
1764233963.399:    526  79  78
1764233963.399:    687  79  78
1764233963.399:    742  79  78
1764233963.399:    614  79  78
1764233963.399:    471  79  78
1764233963.399:    493  79  78
1764233963.399:    626  79  78
1764233963.399:    657  79  78
1764233963.399:    502  79  78
1764233963.399:    326  79  78
1764233963.399:    323  79  78
1764233963.399:    461  79  78
1764233963.399:    528  79  78
1764233963.399:    417  79  78
1764233963.399:    269  79  78
1764233963.399:    271  79  78
1764233963.399:    400  79  78
1764233963.399:    448  79  78
1764233963.399:    296  79  78
1764233963.399:     86  79  78
1764233963.399:     32  79  78
1764233963.399:    143  79  78
1764233963.399:    219  79  78
1764233963.399:    119  79  78
1764233963.399:    -47  79  78
1764233963.399:    -68  79  78
1764233963.399:     75  79  78
1764233963.399:    183  79  78
1764233963.399:    101  79  78
1764233963.399:    -72  79  78
1764233963.399:   -110  79  78
1764233963.399:     36  79  78
1764233963.399:    179  79  78
1764233963.399:    143  79  78
1764233963.399:     -2  79  78
1764233963.399:    -37  79  78
1764233963.399:     99  79  78
1764233963.399:    222  79  78
1764233963.399:    141  79  78
1764233963.399:    -79  79  78
1764233963.399:   -197  79  78
1764233963.399:   -104  79  78
1764233963.399:     42  79  78
1764233963.399:     34  79  78
1764233963.399:    -94  79  78
1764233963.399:   -112  79  78
1764233963.399:     99  79  78
1764233963.570:    397  79  78
1764233963.570:    583  79  78
1764233963.570:    686  79  78
1764233963.570:    923  79  78
1764233963.570:   1397  79  78
1764233963.570:   1933  79  78
1764233963.570:   2306  79  78
1764233963.570:   2540  79  78
1764233963.570:   2879  79  78
1764233963.570:   3436  79  78
1764233963.570:   3997  79  78
1764233963.570:   4247  79  78
1764233963.570:   4136  79  78
1764233963.570:   3916  79  78
1764233963.570:   3797  79  78
1764233963.570:   3688  79  78
1764233963.570:   3335  79  78
1764233963.570:   2676  79  78
1764233963.570:   1944  79  78
1764233963.570:   1393  79  78
1764233963.570:   1025  79  78
1764233963.570:    669  79  78
1764233963.570:    263  79  78
1764233963.570:    -36  79  78
1764233963.570:    -69  79  78
1764233963.570:     95  79  78
1764233963.570:    230  79  78
1764233963.570:    226  79  78
1764233963.570:    198  79  78
1764233963.570:    292  79  78
1764233963.570:    453  79  78
1764233963.570:    482  79  78
1764233963.570:    299  79  78
1764233963.570:     64  79  78
1764233963.570:    -18  79  78
1764233963.570:     54  79  78
1764233963.570:     98  79  78
1764233963.570:      5  79  78
1764233963.570:   -111  79  78
1764233963.570:    -73  79  78
1764233963.570:    101  79  78
1764233963.570:    205  79  78
1764233963.570:    110  79  78
1764233963.570:    -65  79  78
1764233963.570:   -107  79  78
1764233963.570:     18  79  78
1764233963.570:    126  79  78
1764233963.570:     72  79  78
1764233963.570:    -58  79  78
1764233963.570:    -67  79  78
1764233963.570:     74  79  78
1764233963.570:    180  79  78
1764233963.570:     91  79  78
1764233963.570:   -107  79  78
1764233963.570:   -193  79  78
1764233963.570:    -96  79  78
1764233963.570:     25  79  78
1764233963.570:     -4  79  78
1764233963.570:   -133  79  78
1764233963.570:   -164  79  78
1764233963.570:    -25  79  78
1764233963.570:    124  79  78
1764233963.570:    102  79  78
1764233963.570:    -52  79  78
1764233963.602:   -125  77  79
1764233963.602:    -19  77  79
1764233963.602:    130  77  79
1764233963.602:    136  77  79
1764233963.602:     18  77  79
1764233963.602:    -24  77  79
1764233963.602:    113  77  79
1764233963.602:    292  77  79
1764233963.602:    315  77  79
1764233963.602:    186  77  79
1764233963.602:    110  77  79
1764233963.602:    216  77  79
1764233963.602:    390  77  79
1764233963.602:    425  77  79
1764233963.602:    299  77  79
1764233963.602:    204  77  79
1764233963.602:    279  77  79
1764233963.602:    420  77  79
1764233963.602:    418  77  79
1764233963.602:    241  77  79
1764233963.602:     85  77  79
1764233963.602:    120  77  79
1764233963.602:    270  77  79
1764233963.602:    318  77  79
1764233963.602:    193  77  79
1764233963.602:     63  77  79
1764233963.602:     94  77  79
1764233963.602:    233  77  79
1764233963.602:    274  77  79
1764233963.602:    136  77  79
1764233963.602:    -25  77  79
1764233963.602:    -29  77  79
1764233963.602:     96  77  79
1764233963.602:    157  77  79
1764233963.602:     63  77  79
1764233963.602:    -50  77  79
1764233963.602:     -9  77  79
1764233963.602:    153  77  79
1764233963.602:    235  77  79
1764233963.602:    133  77  79
1764233963.602:    -12  77  79
1764233963.602:      3  77  79
1764233963.602:    173  77  79
1764233963.602:    292  77  79
1764233963.602:    226  77  79
1764233963.602:     89  77  79
1764233963.602:     92  77  79
1764233963.602:    251  77  79
1764233963.602:    368  77  79
1764233963.602:    293  77  79
1764233963.602:    129  77  79
1764233963.602:     99  77  79
1764233963.820:    251  77  79
1764233963.820:    401  77  79
1764233963.820:    375  77  79
1764233963.820:    249  77  79
1764233963.820:    235  77  79
1764233963.820:    394  77  79
1764233963.820:    545  77  79
1764233963.820:    509  77  79
1764233963.820:    348  77  79
1764233963.820:    287  77  79
1764233963.820:    414  77  79
1764233963.820:    569  77  79
1764233963.820:    560  77  79
1764233963.820:    422  77  79
1764233963.820:    367  77  79
1764233963.820:    489  77  79
1764233963.820:    636  77  79
1764233963.820:    613  77  79
1764233963.820:    445  77  79
1764233963.820:    349  77  79
1764233963.820:    443  77  79
1764233963.820:    597  77  79
1764233963.820:    605  77  79
1764233963.820:    467  77  79
1764233963.820:    384  77  79
1764233963.820:    481  77  79
1764233963.820:    637  77  79
1764233963.820:    642  77  79
1764233963.820:    477  77  79
1764233963.820:    346  77  79
1764233963.820:    402  77  79
1764233963.820:    552  77  79
1764233963.820:    586  77  79
1764233963.820:    457  77  79
1764233963.820:    338  77  79
1764233963.820:    381  77  79
1764233963.820:    507  77  79
1764233963.820:    512  77  79
1764233963.820:    339  77  79
1764233963.820:    164  77  79
1764233963.820:    158  77  79
1764233963.820:    266  77  79
1764233963.820:    286  77  79
1764233963.820:    143  77  79
1764233963.820:     -9  77  79
1764233963.820:     -2  77  79
1764233963.820:    117  77  79
1764233963.820:    138  77  79
1764233963.820:    -30  77  79
1764233963.820:   -234  77  79
1764233963.820:   -278  77  79
1764233963.820:   -179  77  79
1764233963.820:   -138  77  79
1764233963.820:   -273  77  79
1764233963.820:   -455  77  79
1764233963.820:   -492  77  79
1764233963.820:   -385  77  79
1764233963.820:   -334  77  79
1764233963.820:   -468  77  79
1764233963.820:   -674  77  79
1764233963.820:   -743  77  79
1764233963.820:   -651  77  79
1764233963.820:   -581  77  79
1764233963.820:   -676  77  79
1764233963.852:   -843  77  79
1764233963.852:   -880  77  79
1764233963.852:   -759  77  79
1764233963.852:   -665  77  79
1764233963.852:   -758  77  79
1764233963.852:   -948  77  79
1764233963.852:  -1017  77  79
1764233963.852:   -900  77  79
1764233963.852:   -770  77  79
1764233963.852:   -806  77  79
1764233963.852:   -953  77  79
1764233963.852:  -1001  77  79
1764233963.852:   -874  77  79
1764233963.852:   -736  77  79
1764233963.852:   -775  77  79
1764233963.852:   -951  77  79
1764233963.852:  -1044  77  79
1764233963.852:   -950  77  79
1764233963.852:   -808  77  79
1764233963.852:   -813  77  79
1764233963.852:   -948  77  79
1764233963.852:  -1011  77  79
1764233963.852:   -897  77  79
1764233963.852:   -741  77  79
1764233963.852:   -748  77  79
1764233963.852:   -913  77  79
1764233963.852:  -1021  77  79
1764233963.852:   -930  77  79
1764233963.852:   -754  77  79
1764233963.852:   -707  77  79
1764233963.852:   -821  77  79
1764233963.852:   -907  77  79
1764233963.852:   -815  77  79
1764233963.852:   -639  77  79
1764233963.852:   -594  77  79
1764233963.852:   -728  77  79
1764233963.852:   -860  77  79
1764233963.852:   -818  77  79
1764233963.852:   -664  77  79
1764233963.852:   -600  77  79
1764233963.852:   -696  77  79
1764233963.852:   -794  77  79
1764233963.852:   -731  77  79
1764233963.852:   -562  77  79
1764233963.852:   -492  77  79
1764233963.852:   -600  77  79
1764233963.852:   -734  77  79
1764233963.852:   -709  77  79
1764233963.852:   -556  77  79
1764233963.852:   -475  77  79
1764233963.852:   -567  77  79
1764233963.852:   -695  77  79
1764233963.852:   -675  77  79
1764233963.852:   -525  77  79
1764233963.852:   -447  77  79
1764233963.852:   -557  77  79
1764233963.852:   -720  77  79
1764233963.852:   -730  77  79
1764233963.852:   -577  77  79
1764233963.852:   -460  77  79
1764233963.852:   -521  77  79
1764233963.852:   -655  77  79
1764233963.852:   -661  77  79
1764233963.852:   -516  77  79
1764233963.883:   -411  77  79
1764233963.883:   -495  77  79
1764233963.883:   -671  77  79
1764233963.883:   -723  77  79
1764233963.883:   -601  77  79
1764233963.883:   -481  77  79
1764233963.883:   -527  77  79
1764233963.883:   -666  77  79
1764233963.961:   -692  77  79
1764233963.961:   -550  77  79
1764233963.961:   -415  77  79
1764233963.961:   -466  77  79
1764233963.961:   -642  77  79
1764233963.961:   -719  77  79
1764233963.961:   -609  77  79
1764233963.961:   -468  77  79
1764233963.961:   -488  77  79
1764233963.961:   -637  77  79
1764233963.961:   -705  77  79
1764233963.961:   -592  77  79
1764233963.961:   -443  77  79
1764233963.961:   -459  77  79
1764233963.961:   -626  77  79
1764233963.961:   -727  77  79
1764233963.961:   -631  77  79
1764233963.961:   -460  77  79
1764233963.961:   -425  77  79
1764233963.961:   -543  77  79
1764233963.961:   -618  77  79
1764233963.961:   -511  77  79
1764233963.961:   -333  77  79
1764233963.961:   -301  77  79
1764233963.961:   -445  77  79
1764233963.961:   -571  77  79
1764233963.961:   -512  77  79
1764233963.961:   -348  77  79
1764233963.961:   -294  77  79
1764233963.961:   -406  77  79
1764233963.961:   -510  77  79
1764233963.961:   -443  77  79
1764233963.961:   -274  77  79
1764233963.961:   -220  77  79
1764233963.961:   -353  77  79
1764233963.961:   -502  77  79
1764233963.961:   -478  77  79
1764233963.961:   -321  77  79
1764233963.961:   -241  77  79
1764233963.961:   -335  77  79
1764233963.961:   -458  77  79
1764233963.961:   -427  77  79
1764233963.961:   -273  77  79
1764233963.961:   -197  77  79
1764233963.961:   -303  77  79
1764233963.961:   -452  77  79
1764233963.961:   -450  77  79
1764233963.961:   -306  77  79
1764233963.961:   -217  77  79
1764233963.961:   -301  77  79
1764233963.961:   -432  77  79
1764233963.961:   -415  77  79
1764233963.961:   -254  77  79
1764233963.961:   -156  77  79
1764233964.305:   -258  77  79
1764233964.305:   -438  77  79
1764233964.305:   -474  77  79
1764233964.305:   -329  77  79
1764233964.305:   -198  77  79
1764233964.305:   -244  77  79
1764233964.305:   -385  77  79
1764233964.305:   -407  77  79
1764233964.305:   -263  77  79
1764233964.305:   -132  77  79
1764233964.305:   -188  77  79
1764233964.305:   -359  77  79
1764233964.305:   -422  77  79
1764233964.305:   -302  77  79
1764233964.305:   -161  77  79
1764233964.305:   -183  77  79
1764233964.305:   -320  77  79
1764233964.305:   -360  77  79
1764233964.305:   -220  77  79
1764233964.305:    -58  77  79
1764233964.305:    -69  77  79
1764233964.305:   -219  77  79
1764233964.305:   -287  77  79
1764233964.305:   -162  77  79
1764233964.305:     15  77  79
1764233964.305:     45  77  79
1764233964.305:    -67  77  79
1764233964.305:   -116  77  79
1764233964.305:     15  77  79
1764233964.305:    191  77  79
1764233964.305:    202  77  79
1764233964.305:     45  77  79
1764233964.305:    -64  77  79
1764233964.305:     19  77  79
1764233964.305:    186  77  79
1764233964.305:    219  77  79
1764233964.305:     86  77  79
1764233964.305:    -21  77  79
1764233964.305:     52  77  79
1764233964.305:    208  77  79
1764233964.305:    228  77  79
1764233964.305:     65  77  79
1764233964.305:    -89  77  79
1764233964.305:    -57  77  79
1764233964.305:     95  77  79
1764233964.305:    150  77  79
1764233964.305:     27  77  79
1764233964.305:   -109  77  79
1764233964.305:    -86  77  79
1764233964.305:     46  77  79
1764233964.305:     74  77  79
1764233964.305:    -87  77  79
1764233964.305:   -274  77  79
1764233964.305:   -295  77  79
1764233964.305:   -176  77  79
1764233964.305:   -123  77  79
1764233964.305:   -239  77  79
1764233964.305:   -383  77  79
1764233964.305:   -364  77  79
1764233964.305:   -205  77  79
1764233964.305:   -117  77  79
1764233964.305:   -223  77  79
1764233964.305:   -387  77  79
1764233964.305:   -394  77  79
1764233964.336:   -233  77  79
1764233964.336:   -106  77  79
1764233964.336:   -158  77  79
1764233964.336:   -286  77  79
1764233964.336:   -282  77  79
1764233964.336:   -132  77  79
1764233964.336:    -36  77  79
1764233964.336:   -145  77  79
1764233964.336:   -346  77  79
1764233964.336:   -403  77  79
1764233964.336:   -258  77  79
1764233964.336:   -108  77  79
1764233964.336:   -129  77  79
1764233964.336:   -238  77  79
1764233964.336:   -201  77  79
1764233964.336:     57  77  79
1764233964.336:    362  77  79
1764233964.336:    531  77  79
1764233964.336:    635  77  79
1764233964.336:    895  77  79
1764233964.336:   1376  77  79
1764233964.336:   1880  77  79
1764233964.336:   2213  77  79
1764233964.336:   2450  77  79
1764233964.336:   2834  77  79
1764233964.336:   3419  77  79
1764233964.336:   3948  77  79
1764233964.336:   4127  77  79
1764233964.336:   3969  77  79
1764233964.336:   3754  77  79
1764233964.336:   3657  77  79
1764233964.336:   3534  77  79
1764233964.336:   3126  77  79
1764233964.336:   2418  77  79
1764233964.336:   1676  77  79
1764233964.336:   1138  77  79
1764233964.336:    768  77  79
1764233964.336:    380  77  79
1764233964.336:    -59  77  79
1764233964.336:   -361  77  79
1764233964.336:   -377  77  79
1764233964.336:   -210  77  79
1764233964.336:   -102  77  79
1764233964.336:   -142  77  79
1764233964.336:   -181  77  79
1764233964.336:    -71  77  79
1764233964.336:    111  77  79
1764233964.336:    147  77  79
1764233964.336:    -35  77  79
1764233964.336:   -259  77  79
1764233964.336:   -326  77  79
1764233964.336:   -253  77  79
1764233964.336:   -227  77  79
1764233964.336:   -338  77  79
1764233964.336:   -452  77  79
1764233964.336:   -404  77  79
1764233964.336:   -240  77  79
1764233964.336:   -169  77  79
1764233964.336:   -294  77  79
1764233964.336:   -463  77  79
1764233964.336:   -469  77  79
1764233964.368:   -314  80  79
1764233964.368:   -203  80  79
1764233964.368:   -265  80  79
1764233964.368:   -388  80  79
1764233964.368:   -372  80  79
1764233964.368:   -209  80  79
1764233964.368:    -93  80  79
1764233964.368:   -167  80  79
1764233964.368:   -328  80  79
1764233964.368:   -366  80  79
1764233964.368:   -237  80  79
1764233964.368:   -113  80  79
1764233964.368:   -147  80  79
1764233964.368:   -264  80  79
1764233964.368:   -270  80  79
1764233964.368:   -125  80  79
1764233964.368:      3  80  79
1764233964.368:    -47  80  79
1764233964.368:   -203  80  79
1764233964.368:   -254  80  79
1764233964.368:   -129  80  79
1764233964.368:     14  80  79
1764233964.368:      1  80  79
1764233964.368:   -125  80  79
1764233964.368:   -159  80  79
1764233964.368:    -18  80  79
1764233964.368:    144  80  79
1764233964.368:    140  80  79
1764233964.368:     -2  80  79
1764233964.368:    -70  80  79
1764233964.368:     47  80  79
1764233964.368:    219  80  79
1764233964.368:    249  80  79
1764233964.368:    137  80  79
1764233964.368:     75  80  79
1764233964.368:    176  80  79
1764233964.368:    318  80  79
1764233964.368:    307  80  79
1764233964.368:    142  80  79
1764233964.368:     24  80  79
1764233964.368:     88  80  79
1764233964.368:    231  80  79
1764233964.368:    254  80  79
1764233964.368:    132  80  79
1764233964.368:     48  80  79
1764233964.368:    136  80  79
1764233964.368:    297  80  79
1764233964.368:    324  80  79
1764233964.368:    181  80  79
1764233964.368:     56  80  79
1764233964.368:    113  80  79
1764233964.368:    280  80  79
1764233964.368:    350  80  79
1764233964.368:    256  80  79
1764233964.368:    164  80  79
1764233964.368:    240  80  79
1764233964.368:    425  80  79
1764233964.368:    508  80  79
1764233964.368:    407  80  79
1764233964.368:    282  80  79
1764233964.368:    321  80  79
1764233964.368:    495  80  79
1764233964.368:    602  80  79
1764233964.368:    534  80  79
1764233964.399:    426  80  79
1764233964.399:    468  80  79
1764233964.399:    646  80  79
1764233964.524:    754  80  79
1764233964.524:    669  80  79
1764233964.524:    514  80  79
1764233964.524:    500  80  79
1764233964.524:    651  80  79
1764233964.524:    779  80  79
1764233964.524:    741  80  79
1764233964.524:    630  80  79
1764233964.524:    640  80  79
1764233964.524:    798  80  79
1764233964.524:    921  80  79
1764233964.524:    859  80  79
1764233964.524:    706  80  79
1764233964.524:    677  80  79
1764233964.524:    826  80  79
1764233964.524:    972  80  79
1764233964.524:    944  80  79
1764233964.524:    806  80  79
1764233964.524:    772  80  79
1764233964.524:    912  80  79
1764233964.524:   1054  80  79
1764233964.524:   1008  80  79
1764233964.524:    824  80  79
1764233964.524:    728  80  79
1764233964.524:    823  80  79
1764233964.524:    961  80  79
1764233964.524:    945  80  79
1764233964.524:    798  80  79
1764233964.524:    726  80  79
1764233964.524:    832  80  79
1764233964.524:    974  80  79
1764233964.524:    948  80  79
1764233964.524:    767  80  79
1764233964.524:    647  80  79
1764233964.524:    716  80  79
1764233964.524:    849  80  79
1764233964.524:    837  80  79
1764233964.524:    670  80  79
1764233964.524:    548  80  79
1764233964.524:    608  80  79
1764233964.524:    738  80  79
1764233964.524:    721  80  79
1764233964.524:    530  80  79
1764233964.524:    362  80  79
1764233964.524:    380  80  79
1764233964.524:    501  80  79
1764233964.524:    510  80  79
1764233964.524:    349  80  79
1764233964.524:    192  80  79
1764233964.524:    204  80  79
1764233964.524:    321  80  79
1764233964.524:    334  80  79
1764233964.524:    171  80  79
1764233964.524:     -6  80  79
1764233964.524:    -18  80  79
1764233964.524:     97  80  79
1764233964.524:    134  80  79
1764233964.524:      0  80  79
1764233964.524:   -166  80  79
1764233964.524:   -181  80  79
1764233964.524:    -73  80  79
1764233964.524:    -42  80  79
1764233964.524:   -194  80  79
1764233964.524:   -390  80  79
1764233964.555:   -430  80  79
1764233964.555:   -315  80  79
1764233964.555:   -239  80  79
1764233964.555:   -332  80  79
1764233964.555:   -483  80  79
1764233964.555:   -496  80  79
1764233964.555:   -364  80  79
1764233964.555:   -286  80  79
1764233964.555:   -403  80  79
1764233964.555:   -605  80  79
1764233964.555:   -671  80  79
1764233964.555:   -558  80  79
1764233964.555:   -449  80  79
1764233964.555:   -505  80  79
1764233964.555:   -651  80  79
1764233964.555:   -680  80  79
1764233964.555:   -541  80  79
1764233964.555:   -410  80  79
1764233964.555:   -458  80  79
1764233964.555:   -618  80  79
1764233964.555:   -678  80  79
1764233964.555:   -564  80  79
1764233964.555:   -437  80  79
1764233964.555:   -477  80  79
1764233964.555:   -634  80  79
1764233964.555:   -697  80  79
1764233964.555:   -582  80  79
1764233964.555:   -447  80  79
1764233964.555:   -486  80  79
1764233964.555:   -668  80  79
1764233964.555:   -774  80  79
1764233964.555:   -685  80  79
1764233964.555:   -533  80  79
1764233964.555:   -521  80  79
1764233964.555:   -652  80  79
1764233964.555:   -731  80  79
1764233964.555:   -634  80  79
1764233964.555:   -483  80  79
1764233964.555:   -478  80  79
1764233964.555:   -633  80  79
1764233964.555:   -747  80  79
1764233964.555:   -676  80  79
1764233964.555:   -518  80  79
1764233964.555:   -487  80  79
1764233964.555:   -620  80  79
1764233964.555:   -731  80  79
1764233964.555:   -665  80  79
1764233964.555:   -511  80  79
1764233964.634:   -486  80  79
1764233964.634:   -645  80  79
1764233964.634:   -799  80  79
1764233964.634:   -766  80  79
1764233964.634:   -608  80  79
1764233964.634:   -546  80  79
1764233964.634:   -660  80  79
1764233964.634:   -784  80  79
1764233964.634:   -735  80  79
1764233964.634:   -569  80  79
1764233964.634:   -508  80  79
1764233964.634:   -647  80  79
1764233964.634:   -817  80  79
1764233964.634:   -810  80  79
1764233964.634:   -648  80  79
1764233964.634:   -553  80  79
1764233964.634:   -644  80  79
1764233964.634:   -779  80  79
1764233964.634:   -751  80  79
1764233964.634:   -569  80  79
1764233964.634:   -452  80  79
1764233964.634:   -537  80  79
1764233964.634:   -695  80  79
1764233964.634:   -704  80  79
1764233964.634:   -544  80  79
1764233964.634:   -418  80  79
1764233964.634:   -480  80  79
1764233964.634:   -627  80  79
1764233964.634:   -641  80  79
1764233964.634:   -484  80  79
1764233964.634:   -351  80  79
1764233964.634:   -412  80  79
1764233964.634:   -577  80  79
1764233964.634:   -617  80  79
1764233964.634:   -462  80  79
1764233964.634:   -292  80  79
1764233964.634:   -292  80  79
1764233964.634:   -407  80  79
1764233964.634:   -424  80  79
1764233964.634:   -269  80  79
1764233964.634:   -110  80  79
1764233964.634:   -138  80  79
1764233964.634:   -308  80  79
1764233964.634:   -397  80  79
1764233964.634:   -297  80  79
1764233964.634:   -153  80  79
1764233964.634:   -156  80  79
1764233964.822:   -287  80  79
1764233964.822:   -342  80  79
1764233964.822:   -220  80  79
1764233964.822:    -65  80  79
1764233964.822:    -77  80  79
1764233964.822:   -240  80  79
1764233964.822:   -339  80  79
1764233964.822:   -245  80  79
1764233964.822:    -85  80  79
1764233964.822:    -66  80  79
1764233964.822:   -199  80  79
1764233964.822:   -285  80  79
1764233964.822:   -192  80  79
1764233964.822:    -33  80  79
1764233964.822:    -21  80  79
1764233964.822:   -181  80  79
1764233964.822:   -313  80  79
1764233964.822:   -258  80  79
1764233964.822:   -106  80  79
1764233964.822:    -69  80  79
1764233964.822:   -191  80  79
1764233964.822:   -294  80  79
1764233964.822:   -218  80  79
1764233964.822:    -46  80  79
1764233964.822:      5  80  79
1764233964.822:   -128  80  79
1764233964.822:   -262  80  79
1764233964.822:   -215  80  79
1764233964.822:    -40  80  79
1764233964.822:     46  80  79
1764233964.822:    -45  80  79
1764233964.822:   -154  80  79
1764233964.822:    -93  80  79
1764233964.822:     93  80  79
1764233964.822:    182  80  79
1764233964.822:     68  80  79
1764233964.822:    -91  80  79
1764233964.822:    -79  80  79
1764233964.822:     96  80  79
1764233964.822:    212  80  79
1764233964.822:    132  80  79
1764233964.822:    -18  80  79
1764233964.822:    -19  80  79
1764233964.822:    141  80  79
1764233964.822:    251  80  79
1764233964.822:    151  80  79
1764233964.822:    -47  80  79
1764233964.822:   -111  80  79
1764233964.822:     11  80  79
1764233964.822:    130  80  79
1764233964.822:     73  80  79
1764233964.822:    -87  80  79
1764233964.822:   -133  80  79
1764233964.822:     -4  80  79
1764233964.822:    123  80  79
1764233964.822:     65  80  79
1764233964.822:   -119  80  79
1764233964.822:   -210  80  79
1764233964.822:   -121  80  79
1764233964.822:     -9  80  79
1764233964.822:    -56  80  79
1764233964.822:   -221  80  79
1764233964.822:   -299  80  79
1764233964.822:   -198  80  79
1764233964.853:    -69  80  79
1764233964.853:   -102  80  79
1764233964.853:   -269  80  79
1764233964.853:   -357  80  79
1764233964.853:   -254  80  79
1764233964.853:    -94  80  79
1764233964.853:    -77  80  79
1764233964.853:   -200  80  79
1764233964.853:   -267  80  79
1764233964.853:   -159  80  79
1764233964.853:      5  80  79
1764233964.853:     23  80  79
1764233964.853:   -114  80  79
1764233964.853:   -204  80  79
1764233964.853:   -106  80  79
1764233964.853:     73  80  79
1764233964.853:    119  80  79
1764233964.853:     -9  80  79
1764233964.853:   -123  80  79
1764233964.853:    -61  80  79
1764233964.853:     99  80  79
1764233964.978:    143  80  79
1764233964.978:     12  80  79
1764233964.978:   -103  80  79
1764233964.978:     -8  80  79
1764233964.978:    252  80  79
1764233964.978:    473  80  79
1764233964.978:    580  80  79
1764233964.978:    733  80  79
1764233964.978:   1104  80  79
1764233964.978:   1616  80  79
1764233964.978:   2026  80  79
1764233964.978:   2240  80  79
1764233964.978:   2452  80  79
1764233964.978:   2891  80  79
1764233964.978:   3504  80  79
1764233964.978:   3985  80  79
1764233964.978:   4127  80  79
1764233964.978:   4044  80  79
1764233964.978:   3980  80  79
1764233964.978:   3966  80  79
1764233964.978:   3785  80  79
1764233964.978:   3269  80  79
1764233964.978:   2540  80  79
1764233964.978:   1870  80  79
1764233964.978:   1370  80  79
1764233964.978:    918  80  79
1764233964.978:    405  80  79
1764233964.978:    -58  80  79
1764233964.978:   -268  80  79
1764233964.978:   -216  80  79
1764233964.978:   -118  80  79
1764233964.978:   -159  80  79
1764233964.978:   -267  80  79
1764233964.978:   -240  80  79
1764233964.978:    -39  80  79
1764233964.978:    134  80  79
1764233964.978:     92  80  79
1764233964.978:    -99  80  79
1764233964.978:   -213  80  79
1764233964.978:   -166  80  79
1764233964.978:   -107  80  79
1764233964.978:   -204  80  79
1764233964.978:   -400  80  79
1764233964.978:   -479  80  79
1764233964.978:   -360  80  79
1764233964.978:   -205  80  79
1764233964.978:   -212  80  79
1764233964.978:   -350  80  79
1764233964.978:   -409  80  79
1764233964.978:   -290  80  79
1764233964.978:   -142  80  79
1764233964.978:   -163  80  79
1764233964.978:   -330  80  79
1764233964.978:   -422  80  79
1764233964.978:   -315  80  79
1764233964.978:   -144  80  79
1764233964.978:   -123  80  79
1764233964.978:   -260  80  79
1764233964.978:   -344  80  79
1764233964.978:   -238  80  79
1764233964.978:    -61  80  79
1764233964.978:    -36  80  79
1764233964.978:   -192  80  79
1764233964.978:   -319  80  79
1764233965.009:   -248  85  80
1764233965.009:    -73  85  80
1764233965.009:    -18  85  80
1764233965.009:   -145  85  80
1764233965.009:   -271  85  80
1764233965.009:   -220  85  80
1764233965.009:    -59  85  80
1764233965.009:     -7  85  80
1764233965.009:   -140  85  80
1764233965.009:   -287  85  80
1764233965.009:   -259  85  80
1764233965.009:    -95  85  80
1764233965.009:     -4  85  80
1764233965.009:    -82  85  80
1764233965.009:   -188  85  80
1764233965.009:   -144  85  80
1764233965.009:     16  85  80
1764233965.009:     84  85  80
1764233965.009:    -41  85  80
1764233965.009:   -211  85  80
1764233965.009:   -223  85  80
1764233965.009:    -86  85  80
1764233965.119:     -5  85  80
1764233965.119:   -102  85  80
1764233965.119:   -253  85  80
1764233965.119:   -257  85  80
1764233965.119:   -108  85  80
1764233965.119:     -7  85  80
1764233965.119:    -96  85  80
1764233965.119:   -261  85  80
1764233965.119:   -291  85  80
1764233965.119:   -153  85  80
1764233965.119:    -36  85  80
1764233965.119:    -91  85  80
1764233965.119:   -227  85  80
1764233965.119:   -240  85  80
1764233965.119:    -95  85  80
1764233965.119:     27  85  80
1764233965.119:    -30  85  80
1764233965.119:   -180  85  80
1764233965.119:   -206  85  80
1764233965.119:    -50  85  80
1764233965.119:    112  85  80
1764233965.119:    104  85  80
1764233965.119:    -11  85  80
1764233965.119:    -21  85  80
1764233965.119:    144  85  80
1764233965.119:    316  85  80
1764233965.119:    303  85  80
1764233965.119:    154  85  80
1764233965.119:     93  85  80
1764233965.119:    229  85  80
1764233965.119:    415  85  80
1764233965.119:    445  85  80
1764233965.119:    329  85  80
1764233965.119:    274  85  80
1764233965.119:    403  85  80
1764233965.119:    584  85  80
1764233965.119:    604  85  80
1764233965.119:    455  85  80
1764233965.119:    348  85  80
1764233965.119:    436  85  80
1764233965.119:    619  85  80
1764233965.119:    678  85  80
1764233965.119:    569  85  80
1764233965.119:    476  85  80
1764233965.119:    560  85  80
1764233965.119:    740  85  80
1764233965.119:    800  85  80
1764233965.119:    680  85  80
1764233965.119:    557  85  80
1764233965.119:    607  85  80
1764233965.119:    773  85  80
1764233965.119:    846  85  80
1764233965.119:    747  85  80
1764233965.119:    630  85  80
1764233965.119:    669  85  80
1764233965.119:    820  85  80
1764233965.119:    876  85  80
1764233965.119:    750  85  80
1764233965.119:    593  85  80
1764233965.119:    595  85  80
1764233965.119:    737  85  80
1764233965.119:    822  85  80
1764233965.119:    738  85  80
1764233965.119:    609  85  80
1764233965.150:    616  85  80
1764233965.150:    746  85  80
1764233965.150:    808  85  80
1764233965.150:    685  85  80
1764233965.150:    501  85  80
1764233965.150:    457  85  80
1764233965.150:    566  85  80
1764233965.150:    641  85  80
1764233965.181:    546  85  80
1764233965.181:    378  85  80
1764233965.181:    337  85  80
1764233965.181:    444  85  80
1764233965.181:    514  85  80
1764233965.181:    396  85  80
1764233965.181:    182  85  80
1764233965.181:     84  85  80
1764233965.181:    155  85  80
1764233965.181:    227  85  80
1764233965.181:    140  85  80
1764233965.181:    -38  85  80
1764233965.181:   -105  85  80
1764233965.181:    -10  85  80
1764233965.181:     73  85  80
1764233965.181:    -27  85  80
1764233965.181:   -239  85  80
1764233965.181:   -342  85  80
1764233965.181:   -252  85  80
1764233965.181:   -138  85  80
1764233965.181:   -191  85  80
1764233965.181:   -373  85  80
1764233965.181:   -466  85  80
1764233965.181:   -367  85  80
1764233965.181:   -233  85  80
1764233965.181:   -271  85  80
1764233965.181:   -469  85  80
1764233965.181:   -606  85  80
1764233965.181:   -548  85  80
1764233965.181:   -415  85  80
1764233965.181:   -415  85  80
1764233965.181:   -563  85  80
1764233965.181:   -666  85  80
1764233965.212:   -593  85  80
1764233965.212:   -451  85  80
1764233965.212:   -452  85  80
1764233965.212:   -623  85  80
1764233965.212:   -764  85  80
1764233965.212:   -715  85  80
1764233965.212:   -559  85  80
1764233965.212:   -513  85  80
1764233965.212:   -632  85  80
1764233965.400:   -742  85  80
1764233965.431:   -677  85  80
1764233965.431:   -508  85  80
1764233965.431:   -450  85  80
1764233965.431:   -571  85  80
1764233965.431:   -700  85  80
1764233965.431:   -651  85  80
1764233965.431:   -471  85  80
1764233965.431:   -378  85  80
1764233965.431:   -466  85  80
1764233965.431:   -586  85  80
1764233965.431:   -547  85  80
1764233965.431:   -381  85  80
1764233965.431:   -301  85  80
1764233965.431:   -417  85  80
1764233965.431:   -584  85  80
1764233965.431:   -592  85  80
1764233965.431:   -440  85  80
1764233965.431:   -328  85  80
1764233965.431:   -391  85  80
1764233965.431:   -511  85  80
1764233965.431:   -491  85  80
1764233965.431:   -323  85  80
1764233965.431:   -212  85  80
1764233965.431:   -300  85  80
1764233965.431:   -474  85  80
1764233965.431:   -509  85  80
1764233965.431:   -363  85  80
1764233965.431:   -231  85  80
1764233965.431:   -283  85  80
1764233965.431:   -439  85  80
1764233965.431:   -481  85  80
1764233965.431:   -348  85  80
1764233965.431:   -216  85  80
1764233965.431:   -264  85  80
1764233965.431:   -432  85  80
1764233965.431:   -505  85  80
1764233965.431:   -399  85  80
1764233965.431:   -268  85  80
1764233965.431:   -291  85  80
1764233965.431:   -428  85  80
1764233965.431:   -477  85  80
1764233965.431:   -358  85  80
1764233965.431:   -228  85  80
1764233965.431:   -272  85  80
1764233965.431:   -455  85  80
1764233965.431:   -560  85  80
1764233965.431:   -471  85  80
1764233965.431:   -326  85  80
1764233965.431:   -326  85  80
1764233965.431:   -473  85  80
1764233965.431:   -564  85  80
1764233965.431:   -474  85  80
1764233965.431:   -323  85  80
1764233965.431:   -317  85  80
1764233965.431:   -475  85  80
1764233965.431:   -599  85  80
1764233965.431:   -540  85  80
1764233965.431:   -394  85  80
1764233965.431:   -367  85  80
1764233965.431:   -497  85  80
1764233965.431:   -601  85  80
1764233965.431:   -526  85  80
1764233965.431:   -361  85  80
1764233965.431:   -321  85  80
1764233965.462:   -460  85  80
1764233965.462:   -594  85  80
1764233965.462:   -544  85  80
1764233965.462:   -373  85  80
1764233965.462:   -299  85  80
1764233965.462:   -403  85  80
1764233965.462:   -524  85  80
1764233965.462:   -480  85  80
1764233965.462:   -322  85  80
1764233965.462:   -263  85  80
1764233965.462:   -396  85  80
1764233965.462:   -559  85  80
1764233965.462:   -548  85  80
1764233965.462:   -387  85  80
1764233965.462:   -287  85  80
1764233965.462:   -366  85  80
1764233965.462:   -489  85  80
1764233965.462:   -457  85  80
1764233965.462:   -284  85  80
1764233965.462:   -179  85  80
1764233965.462:   -271  85  80
1764233965.462:   -434  85  80
1764233965.462:   -450  85  80
1764233965.462:   -300  85  80
1764233965.462:   -183  85  80
1764233965.462:   -244  85  80
1764233965.462:   -378  85  80
1764233965.462:   -379  85  80
1764233965.462:   -224  85  80
1764233965.462:   -110  85  80
1764233965.462:   -197  85  80
1764233965.462:   -388  85  80
1764233965.462:   -452  85  80
1764233965.462:   -332  85  80
1764233965.462:   -207  85  80
1764233965.462:   -257  85  80
1764233965.462:   -413  85  80
1764233965.462:   -457  85  80
1764233965.462:   -316  85  80
1764233965.462:   -166  85  80
1764233965.462:   -202  85  80
1764233965.462:   -376  85  80
1764233965.462:   -461  85  80
1764233965.462:   -352  85  80
1764233965.494:   -202  85  80
1764233965.494:   -209  85  80
1764233965.494:   -355  85  80
1764233965.494:   -428  85  80
1764233965.494:   -316  85  80
1764233965.494:   -163  85  80
1764233965.494:   -175  85  80
1764233965.494:   -347  85  80
1764233965.494:   -459  85  80
1764233965.494:   -374  85  80
1764233965.494:   -210  85  80
1764233965.494:   -186  85  80
1764233965.494:   -321  85  80
1764233965.494:   -416  85  80
1764233965.494:   -325  85  80
1764233965.494:   -154  85  80
1764233965.494:   -125  85  80
1764233965.494:   -275  85  80
1764233965.494:   -400  85  80
1764233965.494:   -330  85  80
1764233965.494:   -149  85  80
1764233965.494:    -78  85  80
1764233965.494:   -180  85  80
1764233965.494:   -273  85  80
1764233965.494:   -187  85  80
1764233965.494:      7  85  80
1764233965.494:     82  85  80
1764233965.494:    -37  85  80
1764233965.494:   -174  85  80
1764233965.494:   -131  85  80
1764233965.494:     51  85  80
1764233965.494:    154  85  80
1764233965.494:     80  85  80
1764233965.494:    -24  85  80
1764233965.494:     31  85  80
1764233965.494:    211  85  80
1764233965.494:    304  85  80
1764233965.494:    200  85  80
1764233965.494:     47  85  80
1764233965.525:     51  85  80
1764233965.525:    201  85  80
1764233965.525:    290  85  80
1764233965.525:    190  85  80
1764233965.525:     27  85  80
1764233965.525:     10  85  80
1764233965.525:    149  85  80
1764233965.525:    238  85  80
1764233965.525:    129  85  80
1764233965.666:    -71  85  80
1764233965.666:   -135  85  80
1764233965.666:    -14  85  80
1764233965.666:    107  85  80
1764233965.666:     55  85  80
1764233965.666:   -100  85  80
1764233965.666:   -152  85  80
1764233965.666:    -46  85  80
1764233965.666:     49  85  80
1764233965.666:    -43  85  80
1764233965.666:   -257  85  80
1764233965.666:   -370  85  80
1764233965.666:   -292  85  80
1764233965.666:   -178  85  80
1764233965.666:   -214  85  80
1764233965.666:   -368  85  80
1764233965.666:   -432  85  80
1764233965.666:   -315  85  80
1764233965.666:   -164  85  80
1764233965.666:   -176  85  80
1764233965.666:   -331  85  80
1764233965.666:   -415  85  80
1764233965.666:   -313  85  80
1764233965.666:   -152  85  80
1764233965.666:   -132  85  80
1764233965.666:   -251  85  80
1764233965.666:   -312  85  80
1764233965.666:   -204  85  80
1764233965.666:    -63  85  80
1764233965.666:    -97  85  80
1764233965.666:   -296  85  80
1764233965.666:   -433  85  80
1764233965.666:   -358  85  80
1764233965.666:   -190  85  80
1764233965.666:   -148  85  80
1764233965.666:   -252  85  80
1764233965.666:   -284  85  80
1764233965.666:    -75  85  80
1764233965.666:    277  85  80
1764233965.666:    554  85  80
1764233965.666:    706  85  80
1764233965.666:    917  85  80
1764233965.666:   1331  85  80
1764233965.666:   1855  85  80
1764233965.666:   2282  85  80
1764233965.666:   2577  85  80
1764233965.666:   2917  85  80
1764233965.666:   3412  85  80
1764233965.666:   3903  85  80
1764233965.666:   4114  85  80
1764233965.666:   3975  85  80
1764233965.666:   3704  85  80
1764233965.666:   3511  85  80
1764233965.666:   3332  85  80
1764233965.666:   2927  85  80
1764233965.666:   2219  85  80
1764233965.666:   1432  85  80
1764233965.666:    853  85  80
1764233965.666:    517  85  80
1764233965.666:    231  85  80
1764233965.666:   -134  85  80
1764233965.666:   -450  85  80
1764233965.666:   -515  85  80
1764233965.666:   -337  85  80
1764233965.697:   -147  79  80
1764233965.697:   -125  79  80
1764233965.697:   -196  79  80
1764233965.697:   -169  79  80
1764233965.697:    -24  79  80
1764233965.697:     48  79  80
1764233965.697:    -99  79  80
1764233965.697:   -358  79  80
1764233965.697:   -486  79  80
1764233965.697:   -408  79  80
1764233965.697:   -294  79  80
1764233965.697:   -322  79  80
1764233965.697:   -437  79  80
1764233965.697:   -442  79  80
1764233965.697:   -283  79  80
1764233965.697:   -136  79  80
1764233965.822:   -183  79  80
1764233965.822:   -364  79  80
1764233965.822:   -454  79  80
1764233965.822:   -353  79  80
1764233965.822:   -211  79  80
1764233965.822:   -221  79  80
1764233965.822:   -362  79  80
1764233965.822:   -426  79  80
1764233965.822:   -311  79  80
1764233965.822:   -162  79  80
1764233965.822:   -185  79  80
1764233965.822:   -372  79  80
1764233965.822:   -502  79  80
1764233965.822:   -429  79  80
1764233965.822:   -264  79  80
1764233965.822:   -218  79  80
1764233965.822:   -326  79  80
1764233965.822:   -403  79  80
1764233965.822:   -308  79  80
1764233965.822:   -136  79  80
1764233965.822:    -95  79  80
1764233965.822:   -228  79  80
1764233965.822:   -348  79  80
1764233965.822:   -291  79  80
1764233965.822:   -126  79  80
1764233965.822:    -59  79  80
1764233965.822:   -154  79  80
1764233965.822:   -243  79  80
1764233965.822:   -160  79  80
1764233965.822:     29  79  80
1764233965.822:    111  79  80
1764233965.822:      6  79  80
1764233965.822:   -122  79  80
1764233965.822:    -84  79  80
1764233965.822:     85  79  80
1764233965.822:    175  79  80
1764233965.822:     88  79  80
1764233965.822:    -33  79  80
1764233965.822:      2  79  80
1764233965.822:    170  79  80
1764233965.822:    262  79  80
1764233965.822:    162  79  80
1764233965.822:      7  79  80
1764233965.822:      4  79  80
1764233965.822:    159  79  80
1764233965.822:    276  79  80
1764233965.822:    218  79  80
1764233965.822:     94  79  80
1764233965.822:    103  79  80
1764233965.822:    258  79  80
1764233965.822:    371  79  80
1764233965.822:    301  79  80
1764233965.822:    155  79  80
1764233965.822:    145  79  80
1764233965.822:    307  79  80
1764233965.822:    457  79  80
1764233965.822:    436  79  80
1764233965.822:    324  79  80
1764233965.822:    328  79  80
1764233965.822:    495  79  80
1764233965.822:    646  79  80
1764233965.822:    608  79  80
1764233965.822:    456  79  80
1764233965.822:    415  79  80
1764233965.853:    568  79  80
1764233965.853:    749  79  80
1764233965.853:    768  79  80
1764233965.853:    662  79  80
1764233965.853:    640  79  80
1764233965.853:    794  79  80
1764233965.853:    971  79  80
1764233965.853:    976  79  80
1764233965.853:    833  79  80
1764233965.853:    760  79  80
1764233965.853:    876  79  80
1764233965.853:   1052  79  80
1764233965.853:   1085  79  80
1764233965.853:    973  79  80
1764233965.853:    915  79  80
1764233965.853:   1038  79  80
1764233965.853:   1216  79  80
1764233965.853:   1240  79  80
1764233965.853:   1092  79  80
1764233965.853:    979  79  80
1764233965.853:   1053  79  80
1764233965.853:   1219  79  80
1764233965.853:   1264  79  80
1764233965.853:   1146  79  80
1764233965.853:   1047  79  80
1764233965.853:   1119  79  80
1764233965.916:   1278  79  80
1764233965.916:   1310  79  80
1764233965.916:   1164  79  80
1764233965.916:   1025  79  80
1764233965.916:   1069  79  80
1764233965.916:   1232  79  80
1764233965.916:   1297  79  80
1764233965.916:   1184  79  80
1764233965.916:   1058  79  80
1764233965.916:   1101  79  80
1764233965.916:   1263  79  80
1764233965.916:   1323  79  80
1764233965.916:   1181  79  80
1764233965.916:    994  79  80
1764233965.916:    969  79  80
1764233965.916:   1096  79  80
1764233965.916:   1171  79  80
1764233965.916:   1075  79  80
1764233965.916:    930  79  80
1764233965.916:    930  79  80
1764233965.916:   1067  79  80
1764233965.916:   1144  79  80
1764233965.916:   1031  79  80
1764233965.916:    846  79  80
1764233965.916:    796  79  80
1764233965.916:    904  79  80
1764233965.916:    979  79  80
1764233965.916:    875  79  80
1764233965.916:    691  79  80
1764233965.916:    629  79  80
1764233965.916:    724  79  80
1764233965.916:    789  79  80
1764233965.916:    668  79  80
1764233965.916:    448  79  80
1764233965.916:    349  79  80
1764233965.916:    434  79  80
1764233965.916:    528  79  80
1764233965.916:    456  79  80
1764233965.916:    272  79  80
1764233966.072:    184  79  80
1764233966.072:    266  79  80
1764233966.072:    356  79  80
1764233966.072:    273  79  80
1764233966.072:     64  79  80
1764233966.072:    -54  79  80
1764233966.072:     17  79  80
1764233966.072:    131  79  80
1764233966.072:     97  79  80
1764233966.072:    -66  79  80
1764233966.072:   -152  79  80
1764233966.072:    -56  79  80
1764233966.072:     80  79  80
1764233966.072:     48  79  80
1764233966.072:   -145  79  80
1764233966.072:   -283  79  80
1764233966.072:   -223  79  80
1764233966.072:    -81  79  80
1764233966.072:    -71  79  80
1764233966.072:   -222  79  80
1764233966.072:   -340  79  80
1764233966.072:   -279  79  80
1764233966.072:   -141  79  80
1764233966.072:   -138  79  80
1764233966.072:   -306  79  80
1764233966.072:   -453  79  80
1764233966.072:   -414  79  80
1764233966.072:   -270  79  80
1764233966.072:   -236  79  80
1764233966.072:   -366  79  80
1764233966.072:   -485  79  80
1764233966.072:   -425  79  80
1764233966.072:   -263  79  80
1764233966.072:   -218  79  80
1764233966.072:   -364  79  80
1764233966.072:   -525  79  80
1764233966.072:   -508  79  80
1764233966.072:   -357  79  80
1764233966.072:   -287  79  80
1764233966.072:   -394  79  80
1764233966.072:   -528  79  80
1764233966.072:   -500  79  80
1764233966.072:   -340  79  80
1764233966.072:   -263  79  80
1764233966.072:   -383  79  80
1764233966.072:   -556  79  80
1764233966.072:   -567  79  80
1764233966.072:   -415  79  80
1764233966.072:   -304  79  80
1764233966.072:   -376  79  80
1764233966.072:   -519  79  80
1764233966.072:   -524  79  80
1764233966.072:   -374  79  80
1764233966.072:   -266  79  80
1764233966.072:   -355  79  80
1764233966.072:   -540  79  80
1764233966.072:   -599  79  80
1764233966.072:   -481  79  80
1764233966.072:   -369  79  80
1764233966.072:   -430  79  80
1764233966.072:   -589  79  80
1764233966.072:   -634  79  80
1764233966.072:   -508  79  80
1764233966.072:   -389  79  80
1764233966.103:   -453  79  80
1764233966.103:   -638  79  80
1764233966.103:   -722  79  80
1764233966.103:   -619  79  80
1764233966.275:   -486  79  80
1764233966.275:   -510  79  80
1764233966.275:   -656  79  80
1764233966.275:   -724  79  80
1764233966.275:   -626  79  80
1764233966.275:   -508  79  80
1764233966.275:   -553  79  80
1764233966.275:   -732  79  80
1764233966.275:   -832  79  80
1764233966.275:   -747  79  80
1764233966.275:   -608  79  80
1764233966.275:   -610  79  80
1764233966.275:   -745  79  80
1764233966.275:   -819  79  80
1764233966.275:   -720  79  80
1764233966.275:   -576  79  80
1764233966.275:   -586  79  80
1764233966.275:   -752  79  80
1764233966.275:   -870  79  80
1764233966.275:   -805  79  80
1764233966.275:   -662  79  80
1764233966.275:   -648  79  80
1764233966.275:   -787  79  80
1764233966.275:   -890  79  80
1764233966.275:   -811  79  80
1764233966.275:   -650  79  80
1764233966.275:   -621  79  80
1764233966.275:   -769  79  80
1764233966.275:   -905  79  80
1764233966.275:   -855  79  80
1764233966.275:   -684  79  80
1764233966.275:   -609  79  80
1764233966.275:   -707  79  80
1764233966.275:   -818  79  80
1764233966.275:   -767  79  80
1764233966.275:   -602  79  80
1764233966.275:   -534  79  80
1764233966.275:   -652  79  80
1764233966.275:   -805  79  80
1764233966.275:   -797  79  80
1764233966.275:   -648  79  80
1764233966.275:   -561  79  80
1764233966.275:   -648  79  80
1764233966.275:   -782  79  80
1764233966.275:   -769  79  80
1764233966.275:   -619  79  80
1764233966.275:   -531  79  80
1764233966.275:   -635  79  80
1764233966.275:   -807  79  80
1764233966.275:   -832  79  80
1764233966.275:   -686  79  80
1764233966.275:   -564  79  80
1764233966.275:   -618  79  80
1764233966.275:   -751  79  80
1764233966.275:   -757  79  80
1764233966.275:   -598  79  80
1764233966.275:   -465  79  80
1764233966.275:   -524  79  80
1764233966.275:   -693  79  80
1764233966.275:   -748  79  80
1764233966.275:   -622  79  80
1764233966.275:   -484  79  80
1764233966.306:   -511  79  80
1764233966.306:   -648  79  80
1764233966.306:   -684  79  80
1764233966.306:   -545  79  80
1764233966.306:   -397  79  80
1764233966.306:   -428  79  80
1764233966.306:   -592  79  80
1764233966.306:   -669  79  80
1764233966.306:   -554  79  80
1764233966.306:   -397  79  80
1764233966.306:   -396  79  80
1764233966.306:   -536  79  80
1764233966.306:   -608  79  80
1764233966.306:   -500  79  80
1764233966.306:   -346  79  80
1764233966.306:   -348  79  80
1764233966.306:   -506  79  80
1764233966.306:   -613  79  80
1764233966.306:   -534  79  80
1764233966.306:   -378  79  80
1764233966.306:   -349  79  80
1764233966.306:   -469  79  80
1764233966.306:   -548  79  80
1764233966.306:   -451  79  80
1764233966.306:   -284  79  80
1764233966.306:   -257  79  80
1764233966.306:   -404  79  80
1764233966.306:   -529  79  80
1764233966.306:   -467  79  80
1764233966.306:   -301  79  80
1764233966.306:   -246  79  80
1764233966.306:   -360  79  80
1764233966.306:   -464  79  80
1764233966.306:   -391  79  80
1764233966.306:   -211  79  80
1764233966.306:   -148  79  80
1764233966.306:   -278  79  80
1764233966.306:   -427  79  80
1764233966.306:   -397  79  80
1764233966.306:   -230  79  80
1764233966.306:   -143  79  80
1764233966.306:   -239  79  80
1764233966.306:   -366  79  80
1764233966.306:   -329  79  80
1764233966.306:   -155  79  80
1764233966.306:    -63  79  80
1764233966.306:   -174  79  80
1764233966.481:   -346  79  80
1764233966.481:   -360  79  80
1764233966.481:   -207  79  80
1764233966.481:    -90  79  80
1764233966.481:   -149  79  80
1764233966.481:   -274  79  80
1764233966.481:   -259  79  80
1764233966.481:    -90  79  80
1764233966.481:     35  79  80
1764233966.481:    -32  79  80
1764233966.481:   -186  79  80
1764233966.481:   -215  79  80
1764233966.481:    -76  79  80
1764233966.481:     46  79  80
1764233966.481:     -3  79  80
1764233966.481:   -140  79  80
1764233966.481:   -157  79  80
1764233966.481:    -10  79  80
1764233966.481:    119  79  80
1764233966.481:     61  79  80
1764233966.481:   -113  79  80
1764233966.481:   -181  79  80
1764233966.481:    -72  79  80
1764233966.481:     48  79  80
1764233966.481:     -4  79  80
1764233966.481:   -176  79  80
1764233966.481:   -253  79  80
1764233966.481:   -149  79  80
1764233966.481:    -29  79  80
1764233966.481:    -88  79  80
1764233966.481:   -286  79  80
1764233966.481:   -394  79  80
1764233966.481:   -293  79  80
1764233966.481:   -128  79  80
1764233966.481:   -116  79  80
1764233966.481:   -262  79  80
1764233966.481:   -360  79  80
1764233966.481:   -284  79  80
1764233966.481:   -154  79  80
1764233966.481:   -179  79  80
1764233966.481:   -366  79  80
1764233966.481:   -507  79  80
1764233966.481:   -456  79  80
1764233966.481:   -320  79  80
1764233966.481:   -307  79  80
1764233966.481:   -443  79  80
1764233966.481:   -531  79  80
1764233966.481:   -428  79  80
1764233966.481:   -242  79  80
1764233966.481:   -204  79  80
1764233966.481:   -357  79  80
1764233966.481:   -495  79  80
1764233966.481:   -436  79  80
1764233966.481:   -250  79  80
1764233966.481:   -166  79  80
1764233966.481:   -263  79  80
1764233966.481:   -371  79  80
1764233966.481:   -309  79  80
1764233966.481:   -138  79  80
1764233966.481:    -81  79  80
1764233966.481:   -226  79  80
1764233966.481:   -391  79  80
1764233966.481:   -368  79  80
1764233966.481:   -188  79  80
1764233966.512:    -66  79  80
1764233966.512:   -110  79  80
1764233966.512:   -160  79  80
1764233966.512:     -1  79  80
1764233966.512:    364  79  80
1764233966.512:    724  79  80
1764233966.512:    947  79  80
1764233966.512:   1144  79  80
1764233966.512:   1500  79  80
1764233966.512:   2015  79  80
1764233966.512:   2509  79  80
1764233966.512:   2869  79  80
1764233966.512:   3191  79  80
1764233966.512:   3609  79  80
1764233966.512:   4053  79  80
1764233966.512:   4282  79  80
1764233966.512:   4163  79  80
1764233966.512:   3841  79  80
1764233966.512:   3551  79  80
1764233966.512:   3319  79  80
1764233966.512:   2942  79  80
1764233966.512:   2281  79  80
1764233966.512:   1489  79  80
1764233966.512:    874  79  80
1764233966.512:    556  79  80
1764233966.512:    368  79  80
1764233966.512:    104  79  80
1764233966.512:   -202  79  80
1764233966.512:   -328  79  80
1764233966.512:   -177  79  80
1764233966.512:     74  79  80
1764233966.512:    178  79  80
1764233966.512:    110  79  80
1764233966.512:     60  79  80
1764233966.512:    149  79  80
1764233966.512:    255  79  80
1764233966.512:    176  79  80
1764233966.512:    -84  79  80
1764233966.512:   -299  79  80
1764233966.512:   -301  79  80
1764233966.512:   -186  79  80
1764233966.512:   -169  79  80
1764233966.512:   -294  79  80
1764233966.512:   -385  79  80
1764233966.512:   -306  79  80
1764233966.575:   -159  74  80
1764233966.575:   -157  74  80
1764233966.575:   -333  74  80
1764233966.575:   -489  74  80
1764233966.575:   -452  74  80
1764233966.575:   -300  74  80
1764233966.575:   -248  74  80
1764233966.575:   -361  74  80
1764233966.575:   -463  74  80
1764233966.575:   -388  74  80
1764233966.575:   -213  74  80
1764233966.575:   -165  74  80
1764233966.575:   -316  74  80
1764233966.575:   -479  74  80
1764233966.575:   -449  74  80
1764233966.575:   -268  74  80
1764233966.575:   -162  74  80
1764233966.575:   -239  74  80
1764233966.575:   -346  74  80
1764233966.575:   -284  74  80
1764233966.575:    -82  74  80
1764233966.575:     39  74  80
1764233966.575:    -41  74  80
1764233966.575:   -177  74  80
1764233966.575:   -153  74  80
1764233966.575:     33  74  80
1764233966.575:    174  74  80
1764233966.575:    135  74  80
1764233966.575:     34  74  80
1764233966.575:     74  74  80
1764233966.575:    262  74  80
1764233966.575:    393  74  80
1764233966.575:    324  74  80
1764233966.575:    172  74  80
1764233966.575:    163  74  80
1764233966.575:    331  74  80
1764233966.575:    480  74  80
1764233966.575:    444  74  80
1764233966.575:    309  74  80
1764233966.606:    293  74  80
1764233966.606:    449  74  80
1764233966.606:    590  74  80
1764233966.606:    539  74  80
1764233966.606:    366  74  80
1764233966.606:    298  74  80
1764233966.606:    422  74  80
1764233966.606:    576  74  80
1764233966.606:    569  74  80
1764233966.606:    438  74  80
1764233966.606:    395  74  80
1764233966.606:    531  74  80
1764233966.606:    696  74  80
1764233966.606:    691  74  80
1764233966.606:    538  74  80
1764233966.606:    453  74  80
1764233966.606:    557  74  80
1764233966.606:    726  74  80
1764233966.606:    759  74  80
1764233966.606:    648  74  80
1764233966.606:    588  74  80
1764233966.606:    705  74  80
1764233966.778:    882  74  80
1764233966.778:    915  74  80
1764233966.778:    783  74  80
1764233966.778:    687  74  80
1764233966.778:    776  74  80
1764233966.778:    958  74  80
1764233966.778:   1021  74  80
1764233966.778:    920  74  80
1764233966.778:    837  74  80
1764233966.778:    926  74  80
1764233966.778:   1106  74  80
1764233966.778:   1166  74  80
1764233966.778:   1046  74  80
1764233966.778:    927  74  80
1764233966.778:    986  74  80
1764233966.778:   1167  74  80
1764233966.778:   1260  74  80
1764233966.778:   1185  74  80
1764233966.778:   1094  74  80
1764233966.778:   1160  74  80
1764233966.778:   1338  74  80
1764233966.778:   1419  74  80
1764233966.778:   1314  74  80
1764233966.778:   1177  74  80
1764233966.778:   1200  74  80
1764233966.778:   1362  74  80
1764233966.778:   1460  74  80
1764233966.778:   1386  74  80
1764233966.778:   1271  74  80
1764233966.778:   1302  74  80
1764233966.778:   1464  74  80
1764233966.778:   1557  74  80
1764233966.778:   1459  74  80
1764233966.778:   1300  74  80
1764233966.778:   1289  74  80
1764233966.778:   1437  74  80
1764233966.778:   1551  74  80
1764233966.778:   1488  74  80
1764233966.778:   1349  74  80
1764233966.778:   1338  74  80
1764233966.778:   1480  74  80
1764233966.778:   1584  74  80
1764233966.778:   1496  74  80
1764233966.778:   1309  74  80
1764233966.778:   1239  74  80
1764233966.778:   1344  74  80
1764233966.778:   1448  74  80
1764233966.778:   1379  74  80
1764233966.778:   1199  74  80
1764233966.778:   1120  74  80
1764233966.778:   1209  74  80
1764233966.778:   1299  74  80
1764233966.778:   1207  74  80
1764233966.778:    986  74  80
1764233966.778:    856  74  80
1764233966.778:    916  74  80
1764233966.778:   1017  74  80
1764233966.778:    963  74  80
1764233966.778:    771  74  80
1764233966.778:    648  74  80
1764233966.778:    702  74  80
1764233966.778:    796  74  80
1764233966.778:    726  74  80
1764233966.778:    497  74  80
1764233966.809:    320  74  80
1764233966.809:    331  74  80
1764233966.809:    421  74  80
1764233966.809:    387  74  80
1764233966.809:    208  74  80
1764233966.809:     71  74  80
1764233966.809:    113  74  80
1764233966.809:    228  74  80
1764233966.809:    209  74  80
1764233966.809:     23  74  80
1764233966.809:   -137  74  80
1764233966.809:   -112  74  80
1764233966.809:     13  74  80
1764233966.919:     26  74  80
1764233966.919:   -132  74  80
1764233966.919:   -285  74  80
1764233966.919:   -264  74  80
1764233966.919:   -136  74  80
1764233966.919:   -120  74  80
1764233966.919:   -288  74  80
1764233966.919:   -469  74  80
1764233966.919:   -469  74  80
1764233966.919:   -328  74  80
1764233966.919:   -259  74  80
1764233966.919:   -368  74  80
1764233966.919:   -511  74  80
1764233966.919:   -495  74  80
1764233966.919:   -345  74  80
1764233966.919:   -273  74  80
1764233966.919:   -395  74  80
1764233966.919:   -572  74  80
1764233966.919:   -592  74  80
1764233966.919:   -454  74  80
1764233966.919:   -360  74  80
1764233966.919:   -444  74  80
1764233966.919:   -589  74  80
1764233966.919:   -590  74  80
1764233966.919:   -438  74  80
1764233966.919:   -335  74  80
1764233966.919:   -429  74  80
1764233966.919:   -609  74  80
1764233966.919:   -648  74  80
1764233966.919:   -502  74  80
1764233966.919:   -362  74  80
1764233966.919:   -400  74  80
1764233966.919:   -537  74  80
1764233966.919:   -561  74  80
1764233966.919:   -415  74  80
1764233966.919:   -280  74  80
1764233966.919:   -334  74  80
1764233966.919:   -512  74  80
1764233966.919:   -587  74  80
1764233966.919:   -471  74  80
1764233966.919:   -327  74  80
1764233966.919:   -346  74  80
1764233966.919:   -492  74  80
1764233966.919:   -553  74  80
1764233966.919:   -432  74  80
1764233966.919:   -279  74  80
1764233966.919:   -298  74  80
1764233966.919:   -469  74  80
1764233966.919:   -578  74  80
1764233966.919:   -497  74  80
1764233966.919:   -352  74  80
1764233966.919:   -348  74  80
1764233966.919:   -493  74  80
1764233966.919:   -584  74  80
1764233966.919:   -489  74  80
1764233966.919:   -323  74  80
1764233966.919:   -303  74  80
1764233966.919:   -454  74  80
1764233966.919:   -579  74  80
1764233966.919:   -518  74  80
1764233966.919:   -354  74  80
1764233966.919:   -301  74  80
1764233966.919:   -415  74  80
1764233966.919:   -525  74  80
1764233966.950:   -475  74  80
1764233966.950:   -337  74  80
1764233966.950:   -311  74  80
1764233966.950:   -457  74  80
1764233966.950:   -602  74  80
1764233966.950:   -572  74  80
1764233967.114:   -422  74  80
1764233967.145:   -356  74  80
1764233967.145:   -457  74  80
1764233967.145:   -574  74  80
1764233967.145:   -534  74  80
1764233967.145:   -385  74  80
1764233967.145:   -334  74  80
1764233967.145:   -470  74  80
1764233967.145:   -639  74  80
1764233967.145:   -642  74  80
1764233967.145:   -498  74  80
1764233967.145:   -415  74  80
1764233967.145:   -507  74  80
1764233967.145:   -641  74  80
1764233967.145:   -622  74  80
1764233967.145:   -460  74  80
1764233967.145:   -362  74  80
1764233967.145:   -462  74  80
1764233967.145:   -635  74  80
1764233967.145:   -664  74  80
1764233967.145:   -525  74  80
1764233967.145:   -410  74  80
1764233967.145:   -469  74  80
1764233967.145:   -606  74  80
1764233967.145:   -616  74  80
1764233967.145:   -467  74  80
1764233967.145:   -350  74  80
1764233967.145:   -427  74  80
1764233967.145:   -609  74  80
1764233967.145:   -670  74  80
1764233967.145:   -547  74  80
1764233967.145:   -414  74  80
1764233967.145:   -451  74  80
1764233967.145:   -602  74  80
1764233967.145:   -653  74  80
1764233967.145:   -527  74  80
1764233967.145:   -390  74  80
1764233967.145:   -433  74  80
1764233967.145:   -612  74  80
1764233967.145:   -707  74  80
1764233967.145:   -613  74  80
1764233967.145:   -473  74  80
1764233967.145:   -482  74  80
1764233967.145:   -625  74  80
1764233967.145:   -696  74  80
1764233967.145:   -589  74  80
1764233967.145:   -442  74  80
1764233967.145:   -455  74  80
1764233967.145:   -621  74  80
1764233967.145:   -731  74  80
1764233967.145:   -654  74  80
1764233967.145:   -507  74  80
1764233967.145:   -495  74  80
1764233967.145:   -632  74  80
1764233967.145:   -722  74  80
1764233967.145:   -634  74  80
1764233967.145:   -480  74  80
1764233967.145:   -471  74  80
1764233967.145:   -631  74  80
1764233967.145:   -761  74  80
1764233967.145:   -701  74  80
1764233967.145:   -539  74  80
1764233967.145:   -489  74  80
1764233967.145:   -604  74  80
1764233967.145:   -706  74  80
1764233967.176:   -633  74  80
1764233967.176:   -463  74  80
1764233967.176:   -409  74  80
1764233967.176:   -538  74  80
1764233967.176:   -672  74  80
1764233967.176:   -628  74  80
1764233967.176:   -456  74  80
1764233967.176:   -373  74  80
1764233967.176:   -468  74  80
1764233967.176:   -584  74  80
1764233967.176:   -534  74  80
1764233967.176:   -355  74  80
1764233967.176:   -264  74  80
1764233967.176:   -373  74  80
1764233967.176:   -535  74  80
1764233967.176:   -538  74  80
1764233967.176:   -384  74  80
1764233967.176:   -275  74  80
1764233967.176:   -344  74  80
1764233967.176:   -475  74  80
1764233967.176:   -467  74  80
1764233967.176:   -309  74  80
1764233967.176:   -199  74  80
1764233967.176:   -278  74  80
1764233967.176:   -437  74  80
1764233967.176:   -461  74  80
1764233967.176:   -309  74  80
1764233967.176:   -168  74  80
1764233967.176:   -200  74  80
1764233967.176:   -326  74  80
1764233967.176:   -339  74  80
1764233967.176:   -189  74  80
1764233967.176:    -55  74  80
1764233967.176:   -106  74  80
1764233967.176:   -273  74  80
1764233967.176:   -335  74  80
1764233967.176:   -214  74  80
1764233967.176:    -70  74  80
1764233967.176:    -91  74  80
1764233967.176:   -231  74  80
1764233967.176:   -281  74  80
1764233967.176:   -152  74  80
1764233967.176:      2  74  80
1764233967.176:    -17  74  80
1764233967.176:   -182  74  80
1764233967.176:   -271  74  80
1764233967.176:   -165  74  80
1764233967.176:      0  74  80
1764233967.176:     15  74  80
1764233967.176:   -121  74  80
1764233967.176:   -200  74  80
1764233967.176:    -93  74  80
1764233967.176:     76  74  80
1764233967.176:     90  74  80
1764233967.176:    -66  74  80
1764233967.176:   -182  74  80
1764233967.176:    -99  74  80
1764233967.176:     86  74  80
1764233967.176:    152  74  80
1764233967.176:     53  74  80
1764233967.364:    -30  74  80
1764233967.364:     62  74  80
1764233967.364:    244  74  80
1764233967.364:    299  74  80
1764233967.364:    173  74  80
1764233967.364:     46  74  80
1764233967.364:     97  74  80
1764233967.364:    266  74  80
1764233967.364:    343  74  80
1764233967.364:    256  74  80
1764233967.364:    169  74  80
1764233967.364:    253  74  80
1764233967.364:    451  74  80
1764233967.364:    545  74  80
1764233967.364:    444  74  80
1764233967.364:    303  74  80
1764233967.364:    318  74  80
1764233967.364:    465  74  80
1764233967.364:    540  74  80
1764233967.364:    437  74  80
1764233967.364:    291  74  80
1764233967.364:    293  74  80
1764233967.364:    430  74  80
1764233967.364:    502  74  80
1764233967.364:    390  74  80
1764233967.364:    220  74  80
1764233967.364:    195  74  80
1764233967.364:    326  74  80
1764233967.364:    420  74  80
1764233967.364:    344  74  80
1764233967.364:    202  74  80
1764233967.364:    191  74  80
1764233967.364:    325  74  80
1764233967.364:    408  74  80
1764233967.364:    290  74  80
1764233967.364:     76  74  80
1764233967.364:     -5  74  80
1764233967.364:    100  74  80
1764233967.364:    207  74  80
1764233967.364:    142  74  80
1764233967.364:    -28  74  80
1764233967.364:    -88  74  80
1764233967.364:     31  74  80
1764233967.364:    157  74  80
1764233967.364:    104  74  80
1764233967.364:    -75  74  80
1764233967.364:   -157  74  80
1764233967.364:    -49  74  80
1764233967.364:     95  74  80
1764233967.364:     84  74  80
1764233967.364:    -53  74  80
1764233967.364:   -108  74  80
1764233967.364:     17  74  80
1764233967.364:    166  74  80
1764233967.364:    130  74  80
1764233967.364:    -74  74  80
1764233967.364:   -215  74  80
1764233967.364:   -146  74  80
1764233967.364:     10  74  80
1764233967.364:     37  74  80
1764233967.364:    -75  74  80
1764233967.364:   -113  74  80
1764233967.395:     71  74  80
1764233967.395:    372  74  80
1764233967.395:    584  74  80
1764233967.395:    691  74  80
1764233967.395:    897  74  80
1764233967.395:   1334  74  80
1764233967.395:   1868  74  80
1764233967.395:   2270  74  80
1764233967.395:   2522  74  80
1764233967.395:   2843  74  80
1764233967.395:   3369  74  80
1764233967.395:   3920  74  80
1764233967.395:   4180  74  80
1764233967.395:   4067  74  80
1764233967.395:   3819  74  80
1764233967.395:   3673  74  80
1764233967.395:   3560  74  80
1764233967.395:   3212  74  80
1764233967.395:   2530  74  80
1764233967.395:   1744  74  80
1764233967.395:   1148  74  80
1764233967.395:    782  74  80
1764233967.395:    455  74  80
1764233967.395:     49  74  80
1764233967.395:   -297  74  80
1764233967.395:   -381  74  80
1764233967.395:   -218  74  80
1764233967.395:    -40  74  80
1764233967.395:    -15  74  80
1764233967.395:    -61  74  80
1764233967.395:     -1  74  80
1764233967.395:    161  74  80
1764233967.395:    225  74  80
1764233967.395:     64  74  80
1764233967.395:   -197  74  80
1764233967.395:   -321  74  80
1764233967.395:   -251  74  80
1764233967.395:   -164  74  80
1764233967.395:   -221  74  80
1764233967.395:   -347  74  80
1764233967.395:   -344  74  80
1764233967.395:   -170  74  80
1764233967.395:    -17  74  80
1764233967.395:    -64  74  80
1764233967.395:   -238  74  80
1764233967.395:   -313  74  80
1764233967.395:   -199  74  80
1764233967.395:    -56  74  80
1764233967.395:    -67  74  80
1764233967.395:   -192  74  80
1764233967.395:   -225  74  80
1764233967.395:    -86  74  80
1764233967.395:     67  74  80
1764233967.395:     39  74  80
1764233967.395:   -137  74  80
1764233967.395:   -240  74  80
1764233967.395:   -152  74  80
1764233967.395:     -5  74  80
1764233967.395:      1  74  80
1764233967.395:   -127  74  80
1764233967.395:   -190  74  80
1764233967.395:    -74  74  80
1764233967.395:     91  74  80
1764233967.395:     99  74  80
1764233967.469:    -54  70  77
1764233967.469:   -158  70  77
1764233967.469:    -70  70  77
1764233967.469:    105  70  77
1764233967.469:    154  70  77
1764233967.469:     44  70  77
1764233967.469:    -36  70  77
1764233967.469:     65  70  77
1764233967.469:    253  70  77
1764233967.469:    310  70  77
1764233967.469:    184  70  77
1764233967.469:     62  70  77
1764233967.469:    119  70  77
1764233967.469:    292  70  77
1764233967.469:    368  70  77
1764233967.469:    275  70  77
1764233967.469:    175  70  77
1764233967.469:    244  70  77
1764233967.469:    427  70  77
1764233967.469:    506  70  77
1764233967.469:    391  70  77
1764233967.469:    245  70  77
1764233967.469:    267  70  77
1764233967.469:    433  70  77
1764233967.469:    533  70  77
1764233967.469:    449  70  77
1764233967.469:    316  70  77
1764233967.469:    331  70  77
1764233967.469:    487  70  77
1764233967.469:    580  70  77
1764233967.469:    486  70  77
1764233967.547:    326  70  77
1764233967.547:    308  70  77
1764233967.547:    451  70  77
1764233967.547:    567  70  77
1764233967.547:    519  70  77
1764233967.547:    404  70  77
1764233967.547:    416  70  77
1764233967.547:    573  70  77
1764233967.547:    687  70  77
1764233967.547:    613  70  77
1764233967.547:    450  70  77
1764233967.547:    416  70  77
1764233967.547:    559  70  77
1764233967.547:    702  70  77
1764233967.547:    679  70  77
1764233967.547:    562  70  77
1764233967.547:    558  70  77
1764233967.547:    727  70  77
1764233967.547:    896  70  77
1764233967.547:    885  70  77
1764233967.547:    750  70  77
1764233967.547:    711  70  77
1764233967.547:    856  70  77
1764233967.547:   1032  70  77
1764233967.547:   1046  70  77
1764233967.547:    926  70  77
1764233967.547:    881  70  77
1764233967.547:   1017  70  77
1764233967.547:   1195  70  77
1764233967.547:   1214  70  77
1764233967.547:   1078  70  77
1764233967.547:    993  70  77
1764233967.547:   1092  70  77
1764233967.547:   1263  70  77
1764233967.547:   1303  70  77
1764233967.547:   1196  70  77
1764233967.547:   1128  70  77
1764233967.547:   1227  70  77
1764233967.547:   1385  70  77
1764233967.547:   1395  70  77
1764233967.547:   1237  70  77
1764233967.547:   1111  70  77
1764233967.547:   1178  70  77
1764233967.547:   1350  70  77
1764233967.547:   1408  70  77
1764233967.547:   1296  70  77
1764233967.547:   1191  70  77
1764233967.641:   1258  70  77
1764233967.641:   1421  70  77
1764233967.641:   1462  70  77
1764233967.641:   1312  70  77
1764233967.641:   1151  70  77
1764233967.641:   1167  70  77
1764233967.641:   1311  70  77
1764233967.641:   1364  70  77
1764233967.641:   1235  70  77
1764233967.641:   1082  70  77
1764233967.641:   1095  70  77
1764233967.641:   1234  70  77
1764233967.641:   1277  70  77
1764233967.641:   1116  70  77
1764233967.641:    903  70  77
1764233967.641:    855  70  77
1764233967.641:    967  70  77
1764233967.641:   1024  70  77
1764233967.641:    895  70  77
1764233967.641:    701  70  77
1764233967.641:    649  70  77
1764233967.641:    748  70  77
1764233967.641:    796  70  77
1764233967.641:    651  70  77
1764233967.641:    423  70  77
1764233967.641:    331  70  77
1764233967.641:    410  70  77
1764233967.641:    475  70  77
1764233967.641:    372  70  77
1764233967.641:    184  70  77
1764233967.641:    116  70  77
1764233967.641:    209  70  77
1764233967.641:    283  70  77
1764233967.641:    177  70  77
1764233967.641:    -29  70  77
1764233967.641:   -121  70  77
1764233967.641:    -33  70  77
1764233967.641:     66  70  77
1764233967.641:      2  70  77
1764233967.719:   -168  70  77
1764233967.719:   -235  70  77
1764233967.719:   -127  70  77
1764233967.719:     -9  70  77
1764233967.719:    -72  70  77
1764233967.719:   -271  70  77
1764233967.719:   -380  70  77
1764233967.719:   -288  70  77
1764233967.719:   -142  70  77
1764233967.719:   -145  70  77
1764233967.719:   -289  70  77
1764233967.719:   -369  70  77
1764233967.719:   -266  70  77
1764233967.719:   -108  70  77
1764233967.719:   -103  70  77
1764233967.719:   -259  70  77
1764233967.719:   -374  70  77
1764233967.719:   -303  70  77
1764233967.719:   -149  70  77
1764233967.719:   -119  70  77
1764233967.719:   -247  70  77
1764233967.719:   -350  70  77
1764233967.719:   -285  70  77
1764233967.719:   -139  70  77
1764233967.719:   -118  70  77
1764233967.719:   -267  70  77
1764233967.719:   -403  70  77
1764233967.719:   -358  70  77
1764233967.719:   -197  70  77
1764233967.719:   -128  70  77
1764233967.719:   -223  70  77
1764233967.719:   -321  70  77
1764233967.719:   -255  70  77
1764233967.719:    -80  70  77
1764233967.719:     -4  70  77
1764233967.719:   -112  70  77
1764233967.719:   -247  70  77
1764233967.719:   -222  70  77
1764233967.719:    -63  70  77
1764233967.719:     28  70  77
1764233967.719:    -53  70  77
1764233967.719:   -170  70  77
1764233967.719:   -136  70  77
1764233967.719:     29  70  77
1764233967.719:    119  70  77
1764233967.719:     16  70  77
1764233967.719:   -147  70  77
1764233967.719:   -159  70  77
1764233967.750:     -7  70  77
1764233967.750:    108  70  77
1764233967.750:     43  70  77
1764233967.750:   -100  70  77
1764233967.750:   -114  70  77
1764233967.750:     30  70  77
1764233967.750:    144  70  77
1764233967.750:     73  70  77
1764233967.750:    -89  70  77
1764233967.750:   -131  70  77
1764233967.750:      2  70  77
1764233967.750:    135  70  77
1764233967.750:    100  70  77
1764233967.750:    -35  70  77
1764233967.750:    -64  70  77
1764233967.750:     70  70  77
1764233967.750:    196  70  77
1764233967.750:    137  70  77
1764233967.750:    -47  70  77
1764233967.750:   -134  70  77
1764233967.750:    -31  70  77
1764233967.750:    110  70  77
1764233967.782:     99  70  77
1764233967.782:    -36  70  77
1764233967.782:    -92  70  77
1764233967.782:     26  70  77
1764233967.782:    173  70  77
1764233967.782:    153  70  77
1764233967.782:    -14  70  77
1764233967.782:   -114  70  77
1764233967.782:    -23  70  77
1764233967.782:    131  70  77
1764233967.782:    146  70  77
1764233967.782:     12  70  77
1764233967.946:    -69  70  77
1764233967.946:     35  70  77
1764233967.946:    209  70  77
1764233967.946:    237  70  77
1764233967.946:     91  70  77
1764233967.946:    -35  70  77
1764233967.946:     21  70  77
1764233967.946:    177  70  77
1764233967.946:    227  70  77
1764233967.946:    117  70  77
1764233967.946:     20  70  77
1764233967.946:     89  70  77
1764233967.946:    248  70  77
1764233967.946:    290  70  77
1764233967.946:    160  70  77
1764233967.946:     30  70  77
1764233967.946:     73  70  77
1764233967.946:    230  70  77
1764233967.946:    294  70  77
1764233967.946:    189  70  77
1764233967.946:     75  70  77
1764233967.946:    126  70  77
1764233967.946:    292  70  77
1764233967.946:    361  70  77
1764233967.946:    237  70  77
1764233967.946:     77  70  77
1764233967.946:     82  70  77
1764233967.946:    237  70  77
1764233967.946:    335  70  77
1764233967.946:    255  70  77
1764233967.946:    124  70  77
1764233967.946:    137  70  77
1764233967.946:    292  70  77
1764233967.946:    389  70  77
1764233967.946:    297  70  77
1764233967.946:    132  70  77
1764233967.946:    105  70  77
1764233967.946:    242  70  77
1764233967.946:    354  70  77
1764233967.946:    292  70  77
1764233967.946:    150  70  77
1764233967.946:    135  70  77
1764233967.946:    286  70  77
1764233967.946:    413  70  77
1764233967.946:    348  70  77
1764233967.946:    172  70  77
1764233967.946:    108  70  77
1764233967.946:    231  70  77
1764233967.946:    372  70  77
1764233967.946:    345  70  77
1764233967.946:    196  70  77
1764233967.946:    135  70  77
1764233967.946:    246  70  77
1764233967.946:    374  70  77
1764233967.946:    334  70  77
1764233967.946:    164  70  77
1764233967.946:     83  70  77
1764233967.946:    194  70  77
1764233967.946:    352  70  77
1764233967.946:    359  70  77
1764233967.946:    229  70  77
1764233967.946:    171  70  77
1764233967.946:    295  70  77
1764233967.946:    458  70  77
1764233967.977:    449  70  77
1764233967.977:    274  70  77
1764233967.977:    155  70  77
1764233967.977:    241  70  77
1764233967.977:    417  70  77
1764233967.977:    457  70  77
1764233967.977:    330  70  77
1764233967.977:    233  70  77
1764233967.977:    318  70  77
1764233967.977:    490  70  77
1764233967.977:    527  70  77
1764233967.977:    380  70  77
1764233967.977:    241  70  77
1764233968.009:    282  70  77
1764233968.040:    433  70  77
1764233968.040:    480  70  77
1764233968.040:    360  70  77
1764233968.040:    244  70  77
1764233968.040:    301  70  77
1764233968.040:    465  70  77
1764233968.040:    516  70  77
1764233968.040:    375  70  77
1764233968.040:    217  70  77
1764233968.040:    240  70  77
1764233968.040:    408  70  77
1764233968.040:    502  70  77
1764233968.040:    412  70  77
1764233968.040:    280  70  77
1764233968.040:    300  70  77
1764233968.040:    457  70  77
1764233968.040:    542  70  77
1764233968.040:    436  70  77
1764233968.040:    269  70  77
1764233968.040:    252  70  77
1764233968.040:    393  70  77
1764233968.040:    496  70  77
1764233968.040:    425  70  77
1764233968.040:    286  70  77
1764233968.040:    284  70  77
1764233968.040:    438  70  77
1764233968.040:    551  70  77
1764233968.040:    471  70  77
1764233968.040:    293  70  77
1764233968.040:    238  70  77
1764233968.040:    358  70  77
1764233968.040:    474  70  77
1764233968.040:    422  70  77
1764233968.040:    273  70  77
1764233968.040:    235  70  77
1764233968.040:    364  70  77
1764233968.040:    487  70  77
1764233968.040:    429  70  77
1764233968.040:    255  70  77
1764233968.040:    190  70  77
1764233968.040:    316  70  77
1764233968.040:    471  70  77
1764233968.040:    460  70  77
1764233968.040:    319  70  77
1764233968.040:    258  70  77
1764233968.040:    372  70  77
1764233968.118:    510  70  77
1764233968.118:    475  70  77
1764233968.118:    290  70  77
1764233968.118:    169  70  77
1764233968.118:    237  70  77
1764233968.118:    368  70  77
1764233968.118:    364  70  77
1764233968.118:    226  70  77
1764233968.118:    148  70  77
1764233968.118:    249  70  77
1764233968.118:    405  70  77
1764233968.118:    406  70  77
1764233968.118:    240  70  77
1764233968.118:    114  70  77
1764233968.118:    178  70  77
1764233968.118:    337  70  77
1764233968.118:    381  70  77
1764233968.118:    266  70  77
1764233968.118:    176  70  77
1764233968.118:    261  70  77
1764233968.118:    437  70  77
1764233968.118:    490  70  77
1764233968.118:    366  70  77
1764233968.118:    245  70  77
1764233968.118:    300  70  77
1764233968.118:    466  70  77
1764233968.118:    534  70  77
1764233968.118:    431  70  77
1764233968.118:    325  70  77
1764233968.118:    395  70  77
1764233968.118:    588  70  77
1764233968.118:    678  70  77
1764233968.118:    566  70  77
1764233968.118:    413  70  77
1764233968.118:    424  70  77
1764233968.118:    584  70  77
1764233968.118:    679  70  77
1764233968.118:    583  70  77
1764233968.118:    426  70  77
1764233968.180:    410  70  77
1764233968.212:    535  70  77
1764233968.212:    600  70  77
1764233968.212:    475  70  77
1764233968.212:    283  70  77
1764233968.212:    237  70  77
1764233968.212:    360  70  77
1764233968.212:    454  70  77
1764233968.212:    370  70  77
1764233968.212:    205  70  77
1764233968.212:    166  70  77
1764233968.212:    283  70  77
1764233968.212:    366  70  77
1764233968.212:    252  70  77
1764233968.212:     34  70  77
1764233968.212:    -59  70  77
1764233968.212:     40  70  77
1764233968.212:    153  70  77
1764233968.212:     98  70  77
1764233968.212:    -68  70  77
1764233968.212:   -130  70  77
1764233968.212:     -9  70  77
1764233968.212:    125  70  77
1764233968.212:     75  70  77
1764233968.212:   -120  70  77
1764233968.212:   -233  70  77
1764233968.212:   -148  70  77
1764233968.212:     -4  70  77
1764233968.212:     -6  70  77
1764233968.212:   -147  70  77
1764233968.212:   -226  70  77
1764233968.212:   -130  70  77
1764233968.212:      6  70  77
1764233968.212:    -22  70  77
1764233968.212:   -207  70  77
1764233968.212:   -331  70  77
1764233968.212:   -253  70  77
1764233968.212:    -88  70  77
1764233968.212:    -41  70  77
1764233968.212:   -122  70  77
1764233968.212:   -122  70  77
1764233968.212:    106  70  77
1764233968.212:    462  70  77
1764233968.212:    741  70  77
1764233968.212:    910  70  77
1764233968.212:   1142  70  77
1764233968.306:   1562  70  77
1764233968.306:   2078  70  77
1764233968.306:   2504  70  77
1764233968.306:   2814  70  77
1764233968.306:   3155  70  77
1764233968.306:   3596  70  77
1764233968.306:   3974  70  77
1764233968.306:   4058  70  77
1764233968.306:   3826  70  77
1764233968.306:   3496  70  77
1764233968.306:   3242  70  77
1764233968.306:   2979  70  77
1764233968.306:   2492  70  77
1764233968.306:   1749  70  77
1764233968.306:    995  70  77
1764233968.306:    493  70  77
1764233968.306:    243  70  77
1764233968.306:     35  70  77
1764233968.306:   -257  70  77
1764233968.306:   -505  70  77
1764233968.306:   -518  70  77
1764233968.306:   -312  70  77
1764233968.306:   -116  70  77
1764233968.306:    -99  70  77
1764233968.306:   -177  70  77
1764233968.306:   -165  70  77
1764233968.306:    -46  70  77
1764233968.306:     -5  70  77
1764233968.306:   -174  70  77
1764233968.306:   -434  70  77
1764233968.306:   -548  70  77
1764233968.306:   -455  70  77
1764233968.306:   -334  70  77
1764233968.306:   -365  70  77
1764233968.306:   -489  70  77
1764233968.306:   -509  70  77
1764233968.306:   -372  70  77
1764233968.306:   -251  70  77
1764233968.306:   -323  70  77
1764233968.306:   -525  70  77
1764233968.306:   -634  70  77
1764233968.306:   -553  70  77
1764233968.306:   -431  70  77
1764233968.306:   -454  70  77
1764233968.306:   -593  70  77
1764233968.306:   -650  70  77
1764233968.306:   -536  70  77
1764233968.306:   -401  70  77
1764233968.306:   -439  70  77
1764233968.306:   -626  70  77
1764233968.306:   -743  70  77
1764233968.306:   -666  70  77
1764233968.337:   -519  66  72
1764233968.337:   -509  66  72
1764233968.337:   -643  66  72
1764233968.337:   -722  66  72
1764233968.337:   -622  66  72
1764233968.337:   -464  66  72
1764233968.337:   -455  66  72
1764233968.337:   -609  66  72
1764233968.337:   -721  66  72
1764233968.337:   -642  66  72
1764233968.337:   -472  66  72
1764233968.337:   -426  66  72
1764233968.337:   -542  66  72
1764233968.337:   -628  66  72
1764233968.337:   -530  66  72
1764233968.337:   -344  66  72
1764233968.337:   -295  66  72
1764233968.337:   -439  66  72
1764233968.337:   -586  66  72
1764233968.337:   -547  66  72
1764233968.337:   -376  66  72
1764233968.337:   -291  66  72
1764233968.337:   -383  66  72
1764233968.368:   -501  66  72
1764233968.368:   -464  66  72
1764233968.368:   -309  66  72
1764233968.368:   -241  66  72
1764233968.368:   -358  66  72
1764233968.368:   -517  66  72
1764233968.368:   -527  66  72
1764233968.368:   -395  66  72
1764233968.368:   -313  66  72
1764233968.368:   -392  66  72
1764233968.368:   -513  66  72
1764233968.368:   -492  66  72
1764233968.368:   -339  66  72
1764233968.368:   -248  66  72
1764233968.368:   -339  66  72
1764233968.368:   -492  66  72
1764233968.368:   -500  66  72
1764233968.368:   -349  66  72
1764233968.399:   -230  66  72
1764233968.399:   -286  66  72
1764233968.399:   -416  66  72
1764233968.399:   -415  66  72
1764233968.399:   -253  66  72
1764233968.399:   -122  66  72
1764233968.399:   -181  66  72
1764233968.399:   -340  66  72
1764233968.399:   -376  66  72
1764233968.399:   -231  66  72
1764233968.399:    -80  66  72
1764233968.399:   -100  66  72
1764233968.430:   -230  66  72
1764233968.430:   -260  66  72
1764233968.430:   -121  66  72
1764233968.430:     23  66  72
1764233968.430:     -4  66  72
1764233968.430:   -152  66  72
1764233968.430:   -203  66  72
1764233968.430:    -72  66  72
1764233968.634:     86  66  72
1764233968.634:     83  66  72
1764233968.634:    -46  66  72
1764233968.634:    -89  66  72
1764233968.634:     54  66  72
1764233968.634:    231  66  72
1764233968.634:    233  66  72
1764233968.634:     77  66  72
1764233968.634:    -13  66  72
1764233968.634:    104  66  72
1764233968.634:    303  66  72
1764233968.634:    362  66  72
1764233968.634:    258  66  72
1764233968.634:    185  66  72
1764233968.634:    286  66  72
1764233968.634:    457  66  72
1764233968.634:    487  66  72
1764233968.634:    345  66  72
1764233968.634:    226  66  72
1764233968.634:    296  66  72
1764233968.634:    468  66  72
1764233968.634:    528  66  72
1764233968.634:    415  66  72
1764233968.634:    308  66  72
1764233968.634:    376  66  72
1764233968.634:    551  66  72
1764233968.634:    616  66  72
1764233968.634:    491  66  72
1764233968.634:    347  66  72
1764233968.634:    372  66  72
1764233968.634:    529  66  72
1764233968.634:    613  66  72
1764233968.634:    525  66  72
1764233968.634:    409  66  72
1764233968.634:    443  66  72
1764233968.634:    593  66  72
1764233968.634:    652  66  72
1764233968.634:    516  66  72
1764233968.634:    329  66  72
1764233968.634:    294  66  72
1764233968.634:    407  66  72
1764233968.634:    471  66  72
1764233968.634:    361  66  72
1764233968.634:    193  66  72
1764233968.634:    163  66  72
1764233968.634:    272  66  72
1764233968.634:    328  66  72
1764233968.634:    196  66  72
1764233968.634:    -11  66  72
1764233968.634:    -84  66  72
1764233968.634:      9  66  72
1764233968.634:     86  66  72
1764233968.634:     -5  66  72
1764233968.634:   -178  66  72
1764233968.634:   -231  66  72
1764233968.634:   -121  66  72
1764233968.634:    -28  66  72
1764233968.634:   -118  66  72
1764233968.634:   -320  66  72
1764233968.634:   -418  66  72
1764233968.634:   -338  66  72
1764233968.634:   -237  66  72
1764233968.634:   -289  66  72
1764233968.634:   -450  66  72
1764233968.665:   -515  66  72
1764233968.665:   -404  66  72
1764233968.665:   -273  66  72
1764233968.665:   -312  66  72
1764233968.665:   -490  66  72
1764233968.665:   -590  66  72
1764233968.665:   -502  66  72
1764233968.665:   -363  66  72
1764233968.665:   -371  66  72
1764233968.665:   -516  66  72
1764233968.665:   -597  66  72
1764233968.665:   -498  66  72
1764233968.665:   -347  66  72
1764233968.665:   -351  66  72
1764233968.665:   -514  66  72
1764233968.665:   -632  66  72
1764233968.665:   -559  66  72
1764233968.665:   -404  66  72
1764233968.665:   -372  66  72
1764233968.665:   -495  66  72
1764233968.665:   -584  66  72
1764233968.665:   -497  66  72
1764233968.665:   -333  66  72
1764233968.665:   -308  66  72
1764233968.665:   -460  66  72
1764233968.665:   -594  66  72
1764233968.665:   -536  66  72
1764233968.665:   -360  66  72
1764233968.665:   -284  66  72
1764233968.665:   -381  66  72
1764233968.665:   -480  66  72
1764233968.665:   -406  66  72
1764233968.665:   -216  66  72
1764233968.665:   -132  66  72
1764233968.665:   -245  66  72
1764233968.665:   -394  66  72
1764233968.665:   -383  66  72
1764233968.696:   -232  66  72
1764233968.696:   -147  66  72
1764233968.696:   -238  66  72
1764233968.696:   -371  66  72
1764233968.696:   -355  66  72
1764233968.696:   -204  66  72
1764233968.696:   -119  66  72
1764233968.696:   -220  66  72
1764233968.696:   -378  66  72
1764233968.696:   -388  66  72
1764233968.696:   -238  66  72
1764233968.696:   -126  66  72
1764233968.696:   -194  66  72
1764233968.696:   -339  66  72
1764233968.696:   -357  66  72
1764233968.696:   -223  66  72
1764233968.696:   -124  66  72
1764233968.696:   -212  66  72
1764233968.696:   -395  66  72
1764233968.696:   -454  66  72
1764233968.696:   -334  66  72
1764233968.696:   -208  66  72
1764233968.696:   -244  66  72
1764233968.696:   -383  66  72
1764233968.696:   -424  66  72
1764233968.696:   -306  66  72
1764233968.696:   -192  66  72
1764233968.696:   -253  66  72
1764233968.696:   -433  66  72
1764233968.696:   -519  66  72
1764233968.696:   -424  66  72
1764233968.696:   -295  66  72
1764233968.696:   -312  66  72
1764233968.696:   -445  66  72
1764233968.696:   -497  66  72
1764233968.696:   -376  66  72
1764233968.696:   -227  66  72
1764233968.696:   -241  66  72
1764233968.696:   -402  66  72
1764233968.727:   -505  66  72
1764233968.727:   -430  66  72
1764233968.727:   -292  66  72
1764233968.727:   -284  66  72
1764233968.727:   -415  66  72
1764233968.727:   -498  66  72
1764233968.727:   -414  66  72
1764233968.727:   -273  66  72
1764233968.915:   -269  66  72
1764233968.962:   -418  66  72
1764233968.962:   -526  66  72
1764233968.962:   -452  66  72
1764233968.962:   -295  66  72
1764233968.962:   -262  66  72
1764233968.962:   -394  66  72
1764233968.962:   -508  66  72
1764233968.962:   -443  66  72
1764233968.962:   -276  66  72
1764233968.962:   -222  66  72
1764233968.962:   -351  66  72
1764233968.962:   -490  66  72
1764233968.962:   -459  66  72
1764233968.962:   -301  66  72
1764233968.962:   -220  66  72
1764233968.962:   -307  66  72
1764233968.962:   -420  66  72
1764233968.962:   -383  66  72
1764233968.962:   -233  66  72
1764233968.962:   -174  66  72
1764233968.962:   -304  66  72
1764233968.962:   -476  66  72
1764233968.962:   -482  66  72
1764233968.962:   -327  66  72
1764233968.962:   -213  66  72
1764233968.962:   -274  66  72
1764233968.962:   -402  66  72
1764233968.962:   -400  66  72
1764233968.962:   -254  66  72
1764233968.962:   -152  66  72
1764233968.962:   -236  66  72
1764233968.962:   -403  66  72
1764233968.962:   -448  66  72
1764233968.962:   -337  66  72
1764233968.962:   -242  66  72
1764233968.962:   -309  66  72
1764233968.962:   -449  66  72
1764233968.962:   -460  66  72
1764233968.962:   -302  66  72
1764233968.962:   -165  66  72
1764233968.962:   -221  66  72
1764233968.962:   -395  66  72
1764233968.962:   -461  66  72
1764233968.962:   -340  66  72
1764233968.962:   -197  66  72
1764233968.962:   -220  66  72
1764233968.962:   -371  66  72
1764233968.962:   -438  66  72
1764233968.962:   -328  66  72
1764233968.962:   -192  66  72
1764233968.962:   -221  66  72
1764233968.962:   -387  66  72
1764233968.962:   -472  66  72
1764233968.962:   -363  66  72
1764233968.962:   -195  66  72
1764233968.962:   -172  66  72
1764233968.962:   -296  66  72
1764233968.962:   -366  66  72
1764233968.962:   -260  66  72
1764233968.962:   -103  66  72
1764233968.962:   -104  66  72
1764233968.962:   -276  66  72
1764233968.962:   -408  66  72
1764233968.962:   -342  66  72
1764233968.993:   -176  66  72
1764233968.993:   -128  66  72
1764233968.993:   -242  66  72
1764233968.993:   -331  66  72
1764233968.993:   -239  66  72
1764233968.993:    -57  66  72
1764233968.993:     -9  66  72
1764233968.993:   -152  66  72
1764233968.993:   -297  66  72
1764233968.993:   -258  66  72
1764233968.993:    -94  66  72
1764233968.993:    -22  66  72
1764233968.993:   -123  66  72
1764233968.993:   -238  66  72
1764233968.993:   -190  66  72
1764233968.993:    -33  66  72
1764233968.993:     21  66  72
1764233968.993:   -114  66  72
1764233968.993:   -275  66  72
1764233968.993:   -268  66  72
1764233968.993:   -124  66  72
1764233968.993:    -52  66  72
1764233968.993:   -150  66  72
1764233968.993:   -275  66  72
1764233968.993:   -238  66  72
1764233968.993:    -67  66  72
1764233968.993:     25  66  72
1764233968.993:    -79  66  72
1764233968.993:   -236  66  72
1764233968.993:   -237  66  72
1764233968.993:    -77  66  72
1764233968.993:     42  66  72
1764233968.993:    -17  66  72
1764233968.993:   -139  66  72
1764233968.993:   -122  66  72
1764233968.993:     48  66  72
1764233968.993:    173  66  72
1764233968.993:    104  66  72
1764233968.993:    -55  66  72
1764233968.993:    -81  66  72
1764233968.993:     71  66  72
1764233968.993:    217  66  72
1764233968.993:    188  66  72
1764233968.993:     62  66  72
1764233968.993:     51  66  72
1764233968.993:    210  66  72
1764233968.993:    355  66  72
1764233968.993:    306  66  72
1764233968.993:    131  66  72
1764233968.993:     58  66  72
1764233968.993:    173  66  72
1764233968.993:    309  66  72
1764233968.993:    270  66  72
1764233968.993:     99  66  72
1764233968.993:     16  66  72
1764233968.993:    117  66  72
1764233968.993:    245  66  72
1764233968.993:    198  66  72
1764233968.993:      6  66  72
1764233968.993:   -106  66  72
1764233968.993:    -17  66  72
1764233968.993:    132  66  72
1764233968.993:    129  66  72
1764233968.993:    -28  66  72
1764233969.024:   -128  66  72
1764233969.024:    -43  66  72
1764233969.024:    101  66  72
1764233969.024:     83  66  72
1764233969.024:   -111  66  72
1764233969.024:   -269  66  72
1764233969.262:   -230  66  72
1764233969.293:    -88  66  72
1764233969.293:    -63  66  72
1764233969.293:   -201  66  72
1764233969.293:   -319  66  72
1764233969.293:   -259  66  72
1764233969.293:   -103  66  72
1764233969.293:    -63  66  72
1764233969.293:   -200  66  72
1764233969.293:   -332  66  72
1764233969.293:   -285  66  72
1764233969.293:   -116  66  72
1764233969.293:    -39  66  72
1764233969.293:   -142  66  72
1764233969.293:   -274  66  72
1764233969.293:   -259  66  72
1764233969.293:   -127  66  72
1764233969.293:    -71  66  72
1764233969.293:   -182  66  72
1764233969.293:   -317  66  72
1764233969.293:   -289  66  72
1764233969.293:   -101  66  72
1764233969.293:     67  66  72
1764233969.293:    119  66  72
1764233969.293:    187  66  72
1764233969.293:    460  66  72
1764233969.293:    924  66  72
1764233969.293:   1358  66  72
1764233969.293:   1610  66  72
1764233969.293:   1793  66  72
1764233969.293:   2144  66  72
1764233969.293:   2715  66  72
1764233969.293:   3296  66  72
1764233969.293:   3659  66  72
1764233969.293:   3797  66  72
1764233969.293:   3874  66  72
1764233969.293:   3955  66  72
1764233969.293:   3908  66  72
1764233969.293:   3582  66  72
1764233969.293:   3027  66  72
1764233969.293:   2436  66  72
1764233969.293:   1908  66  72
1764233969.293:   1365  66  72
1764233969.293:    732  66  72
1764233969.293:    126  66  72
1764233969.293:   -235  66  72
1764233969.293:   -306  66  72
1764233969.293:   -279  66  72
1764233969.293:   -356  66  72
1764233969.293:   -496  66  72
1764233969.293:   -496  66  72
1764233969.293:   -288  66  72
1764233969.293:    -58  66  72
1764233969.293:    -28  66  72
1764233969.293:   -181  66  72
1764233969.293:   -300  66  72
1764233969.293:   -259  66  72
1764233969.293:   -185  66  72
1764233969.293:   -267  66  72
1764233969.293:   -485  66  72
1764233969.293:   -618  66  72
1764233969.293:   -531  66  72
1764233969.293:   -349  66  72
1764233969.293:   -299  66  72
1764233969.293:   -420  66  72
1764233969.325:   -519  72  70
1764233969.325:   -441  72  70
1764233969.325:   -278  72  70
1764233969.325:   -244  72  70
1764233969.325:   -385  72  70
1764233969.325:   -513  72  70
1764233969.325:   -451  72  70
1764233969.325:   -269  72  70
1764233969.325:   -183  72  70
1764233969.325:   -274  72  70
1764233969.325:   -379  72  70
1764233969.325:   -322  72  70
1764233969.325:   -154  72  70
1764233969.325:    -86  72  70
1764233969.325:   -203  72  70
1764233969.325:   -343  72  70
1764233969.325:   -314  72  70
1764233969.325:   -147  72  70
1764233969.325:    -50  72  70
1764233969.325:   -132  72  70
1764233969.325:   -249  72  70
1764233969.325:   -212  72  70
1764233969.325:    -38  72  70
1764233969.325:     62  72  70
1764233969.325:    -28  72  70
1764233969.325:   -172  72  70
1764233969.325:   -163  72  70
1764233969.325:      2  72  70
1764233969.325:    125  72  70
1764233969.325:     71  72  70
1764233969.325:    -49  72  70
1764233969.325:    -39  72  70
1764233969.325:    112  72  70
1764233969.325:    212  72  70
1764233969.325:    126  72  70
1764233969.325:    -36  72  70
1764233969.325:    -60  72  70
1764233969.325:     87  72  70
1764233969.325:    220  72  70
1764233969.325:    184  72  70
1764233969.325:     61  72  70
1764233969.325:     55  72  70
1764233969.325:    205  72  70
1764233969.325:    328  72  70
1764233969.325:    260  72  70
1764233969.325:     81  72  70
1764233969.325:     11  72  70
1764233969.325:    126  72  70
1764233969.325:    255  72  70
1764233969.325:    218  72  70
1764233969.325:     67  72  70
1764233969.325:     16  72  70
1764233969.325:    151  72  70
1764233969.325:    311  72  70
1764233969.325:    296  72  70
1764233969.325:    137  72  70
1764233969.325:     59  72  70
1764233969.325:    181  72  70
1764233969.325:    365  72  70
1764233969.325:    398  72  70
1764233969.325:    280  72  70
1764233969.356:    217  72  70
1764233969.356:    335  72  70
1764233969.356:    509  72  70
1764233969.356:    526  72  70
1764233969.356:    369  72  70
1764233969.356:    250  72  70
1764233969.356:    330  72  70
1764233969.356:    513  72  70
1764233969.356:    581  72  70
1764233969.356:    484  72  70
1764233969.356:    405  72  70
1764233969.356:    501  72  70
1764233969.356:    686  72  70
1764233969.356:    747  72  70
1764233969.356:    628  72  70
1764233969.356:    515  72  70
1764233969.356:    581  72  70
1764233969.356:    760  72  70
1764233969.356:    836  72  70
1764233969.356:    733  72  70
1764233969.356:    625  72  70
1764233969.356:    693  72  70
1764233969.356:    880  72  70
1764233969.356:    961  72  70
1764233969.356:    837  72  70
1764233969.356:    675  72  70
1764233969.356:    685  72  70
1764233969.356:    851  72  70
1764233969.356:    957  72  70
1764233969.356:    875  72  70
1764233969.356:    738  72  70
1764233969.356:    746  72  70
1764233969.356:    897  72  70
1764233969.356:    988  72  70
1764233969.356:    888  72  70
1764233969.356:    718  72  70
1764233969.356:    693  72  70
1764233969.356:    834  72  70
1764233969.356:    949  72  70
1764233969.356:    887  72  70
1764233969.356:    746  72  70
1764233969.356:    729  72  70
1764233969.356:    867  72  70
1764233969.356:    972  72  70
1764233969.356:    886  72  70
1764233969.356:    693  72  70
1764233969.356:    611  72  70
1764233969.356:    702  72  70
1764233969.356:    801  72  70
1764233969.356:    741  72  70
1764233969.356:    581  72  70
1764233969.356:    520  72  70
1764233969.356:    618  72  70
1764233969.356:    712  72  70
1764233969.356:    626  72  70
1764233969.356:    416  72  70
1764233969.356:    297  72  70
1764233969.356:    359  72  70
1764233969.356:    449  72  70
1764233969.356:    380  72  70
1764233969.356:    185  72  70
1764233969.356:     71  72  70
1764233969.356:    140  72  70
1764233969.356:    245  72  70
1764233969.387:    184  72  70
1764233969.387:    -28  72  70
1764233969.387:   -177  72  70
1764233969.387:   -128  72  70
1764233969.387:     -3  72  70
1764233969.387:    -12  72  70
1764233969.387:   -171  72  70
1764233969.387:   -287  72  70
1764233969.387:   -220  72  70
1764233969.387:    -77  72  70
1764233969.387:    -71  72  70
1764233969.387:   -238  72  70
1764233969.387:   -386  72  70
1764233969.387:   -352  72  70
1764233969.387:   -212  72  70
1764233969.387:   -177  72  70
1764233969.387:   -305  72  70
1764233969.387:   -427  72  70
1764233969.387:   -378  72  70
1764233969.434:   -230  72  70
1764233969.465:   -194  72  70
1764233969.465:   -345  72  70
1764233969.465:   -510  72  70
1764233969.465:   -499  72  70
1764233969.465:   -348  72  70
1764233969.465:   -272  72  70
1764233969.465:   -372  72  70
1764233969.465:   -505  72  70
1764233969.465:   -484  72  70
1764233969.465:   -333  72  70
1764233969.465:   -254  72  70
1764233969.465:   -357  72  70
1764233969.465:   -506  72  70
1764233969.465:   -504  72  70
1764233969.465:   -358  72  70
1764233969.465:   -265  72  70
1764233969.465:   -344  72  70
1764233969.465:   -473  72  70
1764233969.465:   -454  72  70
1764233969.465:   -291  72  70
1764233969.465:   -191  72  70
1764233969.465:   -290  72  70
1764233969.465:   -469  72  70
1764233969.465:   -506  72  70
1764233969.465:   -368  72  70
1764233969.465:   -245  72  70
1764233969.465:   -298  72  70
1764233969.465:   -442  72  70
1764233969.465:   -467  72  70
1764233969.465:   -331  72  70
1764233969.465:   -215  72  70
1764233969.465:   -284  72  70
1764233969.465:   -461  72  70
1764233969.465:   -528  72  70
1764233969.465:   -414  72  70
1764233969.465:   -287  72  70
1764233969.465:   -324  72  70
1764233969.465:   -474  72  70
1764233969.465:   -528  72  70
1764233969.559:   -406  72  70
1764233969.559:   -271  72  70
1764233969.559:   -311  72  70
1764233969.559:   -489  72  70
1764233969.559:   -585  72  70
1764233969.559:   -491  72  70
1764233969.559:   -347  72  70
1764233969.559:   -354  72  70
1764233969.559:   -503  72  70
1764233969.559:   -588  72  70
1764233969.559:   -491  72  70
1764233969.559:   -343  72  70
1764233969.559:   -355  72  70
1764233969.559:   -530  72  70
1764233969.559:   -657  72  70
1764233969.559:   -588  72  70
1764233969.559:   -428  72  70
1764233969.559:   -391  72  70
1764233969.559:   -511  72  70
1764233969.559:   -601  72  70
1764233969.559:   -515  72  70
1764233969.559:   -351  72  70
1764233969.559:   -326  72  70
1764233969.559:   -482  72  70
1764233969.559:   -625  72  70
1764233969.559:   -580  72  70
1764233969.559:   -419  72  70
1764233969.559:   -362  72  70
1764233969.559:   -479  72  70
1764233969.559:   -600  72  70
1764233969.559:   -546  72  70
1764233969.559:   -376  72  70
1764233969.559:   -311  72  70
1764233969.559:   -439  72  70
1764233969.559:   -595  72  70
1764233969.559:   -579  72  70
1764233969.559:   -419  72  70
1764233969.559:   -324  72  70
1764233969.559:   -405  72  70
1764233969.559:   -525  72  70
1764233969.559:   -491  72  70
1764233969.559:   -321  72  70
1764233969.559:   -224  72  70
1764233969.559:   -323  72  70
1764233969.746:   -486  72  70
1764233969.778:   -500  72  70
1764233969.778:   -351  72  70
1764233969.778:   -236  72  70
1764233969.778:   -298  72  70
1764233969.778:   -435  72  70
1764233969.778:   -441  72  70
1764233969.778:   -293  72  70
1764233969.778:   -183  72  70
1764233969.778:   -260  72  70
1764233969.778:   -426  72  70
1764233969.778:   -464  72  70
1764233969.778:   -328  72  70
1764233969.778:   -201  72  70
1764233969.778:   -251  72  70
1764233969.778:   -402  72  70
1764233969.778:   -436  72  70
1764233969.778:   -295  72  70
1764233969.778:   -158  72  70
1764233969.778:   -209  72  70
1764233969.778:   -387  72  70
1764233969.778:   -464  72  70
1764233969.778:   -343  72  70
1764233969.778:   -184  72  70
1764233969.778:   -186  72  70
1764233969.778:   -323  72  70
1764233969.778:   -387  72  70
1764233969.778:   -275  72  70
1764233969.778:   -130  72  70
1764233969.778:   -151  72  70
1764233969.778:   -324  72  70
1764233969.778:   -432  72  70
1764233969.778:   -348  72  70
1764233969.778:   -195  72  70
1764233969.778:   -181  72  70
1764233969.778:   -315  72  70
1764233969.778:   -401  72  70
1764233969.778:   -307  72  70
1764233969.778:   -147  72  70
1764233969.778:   -137  72  70
1764233969.778:   -298  72  70
1764233969.778:   -429  72  70
1764233969.778:   -370  72  70
1764233969.778:   -208  72  70
1764233969.778:   -157  72  70
1764233969.778:   -267  72  70
1764233969.778:   -358  72  70
1764233969.778:   -271  72  70
1764233969.778:    -89  72  70
1764233969.778:    -33  72  70
1764233969.778:   -167  72  70
1764233969.778:   -311  72  70
1764233969.778:   -284  72  70
1764233969.778:   -134  72  70
1764233969.778:    -71  72  70
1764233969.778:   -178  72  70
1764233969.778:   -298  72  70
1764233969.778:   -252  72  70
1764233969.778:    -86  72  70
1764233969.778:    -14  72  70
1764233969.778:   -131  72  70
1764233969.778:   -281  72  70
1764233969.778:   -262  72  70
1764233969.778:    -90  72  70
1764233969.778:     23  72  70
1764233969.809:    -45  72  70
1764233969.809:   -168  72  70
1764233969.809:   -148  72  70
1764233969.809:     15  72  70
1764233969.809:    120  72  70
1764233969.809:     35  72  70
1764233969.809:   -122  72  70
1764233969.809:   -141  72  70
1764233969.809:      5  72  70
1764233969.809:    124  72  70
1764233969.809:     71  72  70
1764233969.809:    -61  72  70
1764233969.809:    -65  72  70
1764233969.809:     88  72  70
1764233969.809:    211  72  70
1764233969.809:    141  72  70
1764233969.809:    -40  72  70
1764233969.809:   -109  72  70
1764233969.809:      2  72  70
1764233969.809:    128  72  70
1764233969.809:     93  72  70
1764233969.809:    -51  72  70
1764233969.809:   -100  72  70
1764233969.809:     19  72  70
1764233969.809:    143  72  70
1764233969.809:     93  72  70
1764233969.809:    -82  72  70
1764233969.809:   -164  72  70
1764233969.809:    -52  72  70
1764233969.809:    105  72  70
1764233969.809:    108  72  70
1764233969.809:    -28  72  70
1764233969.809:    -99  72  70
1764233969.809:      6  72  70
1764233969.809:    156  72  70
1764233969.809:    151  72  70
1764233969.809:     -4  72  70
1764233969.809:   -103  72  70
1764233969.809:    -14  72  70
1764233969.809:    150  72  70
1764233969.809:    182  72  70
1764233969.809:     66  72  70
1764233969.809:     -3  72  70
1764233969.809:    113  72  70
1764233969.809:    302  72  70
1764233969.809:    347  72  70
1764233969.809:    210  72  70
1764233969.809:     91  72  70
1764233969.809:    162  72  70
1764233969.809:    348  72  70
1764233969.809:    430  72  70
1764233969.809:    339  72  70
1764233969.997:    242  72  70
1764233970.028:    312  72  70
1764233970.028:    487  72  70
1764233970.028:    552  72  70
1764233970.028:    426  72  70
1764233970.028:    273  72  70
1764233970.028:    286  72  70
1764233970.028:    431  72  70
1764233970.028:    495  72  70
1764233970.028:    375  72  70
1764233970.028:    218  72  70
1764233970.028:    221  72  70
1764233970.028:    363  72  70
1764233970.028:    429  72  70
1764233970.028:    296  72  70
1764233970.028:    103  72  70
1764233970.028:     72  72  70
1764233970.028:    213  72  70
1764233970.028:    315  72  70
1764233970.028:    227  72  70
1764233970.028:     55  72  70
1764233970.028:     14  72  70
1764233970.028:    133  72  70
1764233970.028:    214  72  70
1764233970.028:     96  72  70
1764233970.028:   -124  72  70
1764233970.028:   -216  72  70
1764233970.028:   -119  72  70
1764233970.028:    -12  72  70
1764233970.028:    -67  72  70
1764233970.028:   -219  72  70
1764233970.028:   -257  72  70
1764233970.028:   -120  72  70
1764233970.028:     17  72  70
1764233970.028:    -28  72  70
1764233970.028:   -197  72  70
1764233970.028:   -273  72  70
1764233970.028:   -167  72  70
1764233970.028:    -33  72  70
1764233970.028:    -60  72  70
1764233970.028:   -222  72  70
1764233970.028:   -315  72  70
1764233970.028:   -241  72  70
1764233970.028:   -131  72  70
1764233970.028:   -165  72  70
1764233970.028:   -324  72  70
1764233970.028:   -404  72  70
1764233970.028:   -287  72  70
1764233970.028:    -83  72  70
1764233970.028:     27  72  70
1764233970.028:     54  72  70
1764233970.028:    193  72  70
1764233970.028:    566  72  70
1764233970.028:   1044  72  70
1764233970.028:   1399  72  70
1764233970.028:   1587  72  70
1764233970.028:   1812  72  70
1764233970.028:   2259  72  70
1764233970.028:   2857  72  70
1764233970.028:   3356  72  70
1764233970.028:   3613  72  70
1764233970.028:   3717  72  70
1764233970.028:   3814  72  70
1764233970.028:   3876  72  70
1764233970.028:   3735  72  70
1764233970.059:   3313  70  70
1764233970.059:   2740  70  70
1764233970.059:   2193  70  70
1764233970.059:   1689  70  70
1764233970.059:   1125  70  70
1764233970.059:    492  70  70
1764233970.059:    -31  70  70
1764233970.059:   -278  70  70
1764233970.059:   -304  70  70
1764233970.059:   -324  70  70
1764233970.059:   -448  70  70
1764233970.059:   -546  70  70
1764233970.059:   -453  70  70
1764233970.059:   -217  70  70
1764233970.059:    -65  70  70
1764233970.059:   -128  70  70
1764233970.059:   -282  70  70
1764233970.059:   -322  70  70
1764233970.059:   -241  70  70
1764233970.059:   -224  70  70
1764233970.059:   -384  70  70
1764233970.059:   -587  70  70
1764233970.059:   -621  70  70
1764233970.059:   -469  70  70
1764233970.059:   -333  70  70
1764233970.059:   -373  70  70
1764233970.059:   -499  70  70
1764233970.059:   -508  70  70
1764233970.059:   -366  70  70
1764233970.059:   -258  70  70
1764233970.059:   -340  70  70
1764233970.059:   -518  70  70
1764233970.059:   -564  70  70
1764233970.059:   -418  70  70
1764233970.059:   -262  70  70
1764233970.059:   -281  70  70
1764233970.059:   -420  70  70
1764233970.059:   -464  70  70
1764233970.059:   -336  70  70
1764233970.059:   -202  70  70
1764233970.059:   -245  70  70
1764233970.059:   -419  70  70
1764233970.059:   -502  70  70
1764233970.059:   -392  70  70
1764233970.059:   -237  70  70
1764233970.059:   -233  70  70
1764233970.059:   -365  70  70
1764233970.059:   -430  70  70
1764233970.059:   -320  70  70
1764233970.059:   -167  70  70
1764233970.059:   -166  70  70
1764233970.059:   -310  70  70
1764233970.090:   -394  70  70
1764233970.090:   -289  70  70
1764233970.090:   -113  70  70
1764233970.090:    -66  70  70
1764233970.090:   -165  70  70
1764233970.090:   -224  70  70
1764233970.090:   -109  70  70
1764233970.090:     74  70  70
1764233970.090:    116  70  70
1764233970.090:    -16  70  70
1764233970.090:   -133  70  70
1764233970.090:    -70  70  70
1764233970.090:     96  70  70
1764233970.090:    157  70  70
1764233970.090:     53  70  70
1764233970.090:    -54  70  70
1764233970.090:     -1  70  70
1764233970.090:    149  70  70
1764233970.090:    191  70  70
1764233970.090:     58  70  70
1764233970.090:    -85  70  70
1764233970.090:    -53  70  70
1764233970.090:    111  70  70
1764233970.090:    199  70  70
1764233970.090:    113  70  70
1764233970.090:     -1  70  70
1764233970.090:     45  70  70
1764233970.090:    220  70  70
1764233970.090:    314  70  70
1764233970.090:    213  70  70
1764233970.090:     57  70  70
1764233970.090:     53  70  70
1764233970.090:    205  70  70
1764233970.090:    312  70  70
1764233970.090:    243  70  70
1764233970.090:    116  70  70
1764233970.090:    135  70  70
1764233970.090:    308  70  70
1764233970.090:    433  70  70
1764233970.122:    360  70  70
1764233970.122:    201  70  70
1764233970.122:    182  70  70
1764233970.122:    347  70  70
1764233970.122:    504  70  70
1764233970.122:    483  70  70
1764233970.122:    361  70  70
1764233970.122:    355  70  70
1764233970.200:    522  70  70
1764233970.200:    678  70  70
1764233970.200:    645  70  70
1764233970.200:    489  70  70
1764233970.200:    436  70  70
1764233970.200:    574  70  70
1764233970.200:    740  70  70
1764233970.200:    741  70  70
1764233970.200:    613  70  70
1764233970.200:    571  70  70
1764233970.200:    712  70  70
1764233970.200:    884  70  70
1764233970.200:    885  70  70
1764233970.200:    738  70  70
1764233970.200:    658  70  70
1764233970.200:    767  70  70
1764233970.200:    937  70  70
1764233970.200:    961  70  70
1764233970.200:    835  70  70
1764233970.200:    760  70  70
1764233970.200:    863  70  70
1764233970.200:   1025  70  70
1764233970.200:   1038  70  70
1764233970.200:    882  70  70
1764233970.200:    760  70  70
1764233970.200:    825  70  70
1764233970.200:    983  70  70
1764233970.200:   1025  70  70
1764233970.200:    908  70  70
1764233970.200:    810  70  70
1764233970.200:    880  70  70
1764233970.200:   1030  70  70
1764233970.200:   1051  70  70
1764233970.200:    895  70  70
1764233970.200:    743  70  70
1764233970.200:    767  70  70
1764233970.200:    901  70  70
1764233970.200:    934  70  70
1764233970.200:    798  70  70
1764233970.231:    658  70  70
1764233970.231:    684  70  70
1764233970.231:    820  70  70
1764233970.231:    848  70  70
1764233970.231:    684  70  70
1764233970.231:    493  70  70
1764233970.231:    472  70  70
1764233970.231:    592  70  70
1764233970.231:    642  70  70
1764233970.231:    509  70  70
1764233970.231:    331  70  70
1764233970.231:    306  70  70
1764233970.231:    424  70  70
1764233970.231:    477  70  70
1764233970.231:    336  70  70
1764233970.231:    122  70  70
1764233970.231:     51  70  70
1764233970.231:    148  70  70
1764233970.231:    223  70  70
1764233970.231:    129  70  70
1764233970.231:    -43  70  70
1764233970.231:    -91  70  70
1764233970.231:     18  70  70
1764233970.231:    104  70  70
1764233970.231:     11  70  70
1764233970.231:   -182  70  70
1764233970.231:   -267  70  70
1764233970.231:   -182  70  70
1764233970.231:    -90  70  70
1764233970.231:   -156  70  70
1764233970.309:   -324  70  70
1764233970.309:   -393  70  70
1764233970.309:   -296  70  70
1764233970.309:   -192  70  70
1764233970.309:   -258  70  70
1764233970.309:   -443  70  70
1764233970.309:   -537  70  70
1764233970.309:   -445  70  70
1764233970.309:   -313  70  70
1764233970.309:   -329  70  70
1764233970.309:   -472  70  70
1764233970.309:   -542  70  70
1764233970.309:   -439  70  70
1764233970.309:   -300  70  70
1764233970.309:   -321  70  70
1764233970.309:   -490  70  70
1764233970.309:   -598  70  70
1764233970.309:   -514  70  70
1764233970.309:   -354  70  70
1764233970.309:   -321  70  70
1764233970.309:   -430  70  70
1764233970.309:   -494  70  70
1764233970.309:   -382  70  70
1764233970.309:   -207  70  70
1764233970.309:   -179  70  70
1764233970.309:   -328  70  70
1764233970.309:   -455  70  70
1764233970.309:   -395  70  70
1764233970.340:   -230  70  70
1764233970.340:   -171  70  70
1764233970.340:   -276  70  70
1764233970.340:   -369  70  70
1764233970.340:   -287  70  70
1764233970.340:   -100  70  70
1764233970.340:    -27  70  70
1764233970.340:   -144  70  70
1764233970.340:   -279  70  70
1764233970.340:   -244  70  70
1764233970.340:    -79  70  70
1764233970.340:      4  70  70
1764233970.340:    -90  70  70
1764233970.340:   -213  70  70
1764233970.340:   -180  70  70
1764233970.340:    -21  70  70
1764233970.340:     53  70  70
1764233970.340:    -67  70  70
1764233970.340:   -233  70  70
1764233970.340:   -240  70  70
1764233970.340:    -92  70  70
1764233970.340:      8  70  70
1764233970.340:    -71  70  70
1764233970.340:   -211  70  70
1764233970.372:   -213  70  70
1764233970.372:    -70  70  70
1764233970.372:     20  70  70
1764233970.372:    -80  70  70
1764233970.372:   -256  70  70
1764233970.372:   -293  70  70
1764233970.372:   -159  70  70
1764233970.372:    -39  70  70
1764233970.450:    -90  70  70
1764233970.450:   -229  70  70
1764233970.450:   -250  70  70
1764233970.450:   -110  70  70
1764233970.450:     10  70  70
1764233970.450:    -56  70  70
1764233970.450:   -232  70  70
1764233970.450:   -300  70  70
1764233970.450:   -184  70  70
1764233970.450:    -51  70  70
1764233970.450:    -82  70  70
1764233970.450:   -233  70  70
1764233970.450:   -294  70  70
1764233970.450:   -179  70  70
1764233970.450:    -41  70  70
1764233970.450:    -71  70  70
1764233970.450:   -241  70  70
1764233970.450:   -337  70  70
1764233970.450:   -241  70  70
1764233970.450:    -85  70  70
1764233970.450:    -67  70  70
1764233970.450:   -190  70  70
1764233970.450:   -261  70  70
1764233970.450:   -162  70  70
1764233970.450:    -12  70  70
1764233970.450:    -14  70  70
1764233970.450:   -173  70  70
1764233970.450:   -290  70  70
1764233970.450:   -224  70  70
1764233970.450:    -78  70  70
1764233970.450:    -57  70  70
1764233970.450:   -189  70  70
1764233970.450:   -287  70  70
1764233970.450:   -206  70  70
1764233970.450:    -45  70  70
1764233970.450:    -21  70  70
1764233970.450:   -174  70  70
1764233970.450:   -310  70  70
1764233970.450:   -260  70  70
1764233970.450:    -99  70  70
1764233970.450:    -47  70  70
1764233970.450:   -171  70  70
1764233970.450:   -294  70  70
1764233970.450:   -242  70  70
1764233970.450:    -76  70  70
1764233970.450:    -18  70  70
1764233970.450:   -155  70  70
1764233970.669:   -316  70  70
1764233970.700:   -303  70  70
1764233970.700:   -148  70  70
1764233970.700:    -66  70  70
1764233970.700:   -165  70  70
1764233970.700:   -304  70  70
1764233970.700:   -290  70  70
1764233970.700:   -146  70  70
1764233970.700:    -80  70  70
1764233970.700:   -207  70  70
1764233970.700:   -386  70  70
1764233970.700:   -407  70  70
1764233970.700:   -266  70  70
1764233970.700:   -167  70  70
1764233970.700:   -245  70  70
1764233970.700:   -386  70  70
1764233970.700:   -383  70  70
1764233970.700:   -227  70  70
1764233970.700:   -122  70  70
1764233970.700:   -218  70  70
1764233970.700:   -407  70  70
1764233970.700:   -463  70  70
1764233970.700:   -341  70  70
1764233970.700:   -227  70  70
1764233970.700:   -287  70  70
1764233970.700:   -438  70  70
1764233970.700:   -466  70  70
1764233970.700:   -318  70  70
1764233970.700:   -181  70  70
1764233970.700:   -237  70  70
1764233970.700:   -418  70  70
1764233970.700:   -492  70  70
1764233970.700:   -367  70  70
1764233970.700:   -210  70  70
1764233970.700:   -221  70  70
1764233970.700:   -367  70  70
1764233970.700:   -430  70  70
1764233970.700:   -306  70  70
1764233970.700:   -144  70  70
1764233970.700:   -153  70  70
1764233970.700:   -317  70  70
1764233970.700:   -417  70  70
1764233970.700:   -323  70  70
1764233970.700:   -162  70  70
1764233970.700:   -144  70  70
1764233970.700:   -282  70  70
1764233970.700:   -372  70  70
1764233970.700:   -278  70  70
1764233970.700:   -117  70  70
1764233970.700:   -107  70  70
1764233970.700:   -273  70  70
1764233970.700:   -410  70  70
1764233970.700:   -350  70  70
1764233970.700:   -181  70  70
1764233970.700:   -124  70  70
1764233970.700:   -237  70  70
1764233970.700:   -340  70  70
1764233970.700:   -268  70  70
1764233970.700:    -99  70  70
1764233970.700:    -50  70  70
1764233970.700:   -188  70  70
1764233970.700:   -332  70  70
1764233970.700:   -299  70  70
1764233970.700:   -139  70  70
1764233970.700:    -71  70  70
1764233970.731:   -182  70  70
1764233970.731:   -310  70  70
1764233970.731:   -267  70  70
1764233970.731:    -91  70  70
1764233970.731:     -3  70  70
1764233970.731:   -111  70  70
1764233970.731:   -266  70  70
1764233970.731:   -256  70  70
1764233970.731:    -85  70  70
