timestamp: ADC HeartRate4sAverage HeartRate30sAverage
1758536288.552:    732  74  69
1758536288.552:    746  74  69
1758536288.552:    747  74  69
1758536288.552:    732  74  69
1758536288.552:    676  74  69
1758536288.552:    551  74  69
1758536288.552:    375  74  69
1758536288.552:    207  74  69
1758536288.552:    101  74  69
1758536288.552:     61  74  69
1758536288.552:     52  74  69
1758536288.552:     41  74  69
1758536288.552:     23  74  69
1758536288.552:     -9  74  69
1758536288.552:    -80  74  69
1758536288.552:   -214  74  69
1758536288.552:   -396  74  69
1758536288.552:   -568  74  69
1758536288.552:   -676  74  69
1758536288.552:   -712  74  69
1758536288.552:   -709  74  69
1758536288.552:   -698  74  69
1758536288.552:   -687  74  69
1758536288.552:   -680  74  69
1758536288.552:   -704  74  69
1758536288.552:   -787  74  69
1758536288.552:   -924  74  69
1758536288.552:  -1061  74  69
1758536288.552:  -1140  74  69
1758536288.552:  -1143  74  69
1758536288.552:  -1099  74  69
1758536288.552:  -1044  74  69
1758536288.552:   -991  74  69
1758536288.552:   -943  74  69
1758536288.552:   -921  74  69
1758536288.615:   -953  74  69
1758536288.615:  -1039  74  69
1758536288.615:  -1134  74  69
1758536288.615:  -1179  74  69
1758536288.615:  -1151  74  69
1758536288.615:  -1075  74  69
1758536288.615:   -991  74  69
1758536288.615:   -914  74  69
1758536288.615:   -841  74  69
1758536288.615:   -789  74  69
1758536288.615:   -789  74  69
1758536288.615:   -854  74  69
1758536288.615:   -948  74  69
1758536288.615:  -1007  74  69
1758536288.615:   -991  74  69
1758536288.615:   -916  74  69
1758536288.615:   -822  74  69
1758536288.615:   -735  74  69
1758536288.615:   -658  74  69
1758536288.615:   -601  74  69
1758536288.615:   -592  74  69
1758536288.615:   -645  74  69
1758536288.615:   -730  74  69
1758536288.615:   -787  74  69
1758536288.615:   -775  74  69
1758536288.615:   -707  74  69
1758536288.615:   -619  74  69
1758536288.615:   -536  74  69
1758536288.615:   -456  74  69
1758536288.615:   -389  74  69
1758536288.615:   -365  74  69
1758536288.615:   -411  74  69
1758536288.724:   -502  74  69
1758536288.724:   -576  74  69
1758536288.724:   -582  74  69
1758536288.724:   -520  74  69
1758536288.724:   -431  74  69
1758536288.724:   -348  74  69
1758536288.724:   -275  74  69
1758536288.724:   -217  74  69
1758536288.724:   -199  74  69
1758536288.724:   -247  74  69
1758536288.724:   -342  74  69
1758536288.724:   -428  74  69
1758536288.724:   -451  74  69
1758536288.724:   -407  74  69
1758536288.724:   -333  74  69
1758536288.724:   -260  74  69
1758536288.724:   -195  74  69
1758536288.724:   -138  74  69
1758536288.724:   -113  74  69
1758536288.724:   -151  74  69
1758536288.724:   -248  74  69
1758536288.724:   -350  74  69
1758536288.724:   -400  74  69
1758536288.724:   -380  74  69
1758536288.724:   -317  74  69
1758536288.724:   -247  74  69
1758536288.724:   -188  74  69
1758536288.724:   -143  74  69
1758536288.724:   -131  74  69
1758536288.724:   -176  74  69
1758536288.724:   -273  74  69
1758536288.724:   -376  74  69
1758536288.724:   -430  74  69
1758536288.724:   -417  74  69
1758536288.724:   -358  74  69
1758536288.724:   -288  74  69
1758536288.724:   -221  74  69
1758536288.724:   -158  74  69
1758536288.724:   -121  74  69
1758536288.724:   -143  74  69
1758536288.724:   -234  74  69
1758536288.724:   -348  74  69
1758536288.724:   -418  74  69
1758536288.724:   -410  74  69
1758536288.724:   -349  74  69
1758536288.724:   -277  74  69
1758536288.724:   -216  74  69
1758536288.724:   -160  74  69
1758536288.724:   -120  74  69
1758536288.724:   -129  74  69
1758536288.724:   -207  74  69
1758536288.724:   -322  74  69
1758536288.724:   -406  74  69
1758536288.724:   -416  74  69
1758536288.724:   -366  74  69
1758536288.724:   -296  74  69
1758536288.764:   -230  74  69
1758536288.786:   -163  74  69
1758536288.786:   -104  74  69
1758536288.786:    -89  74  69
1758536288.786:   -147  74  69
1758536288.786:   -257  74  69
1758536288.786:   -350  74  69
1758536288.786:   -375  74  69
1758536288.786:   -332  74  69
1758536288.786:   -263  74  69
1758536288.786:   -196  74  69
1758536288.786:   -134  74  69
1758536288.786:    -79  74  69
1758536288.786:    -60  74  69
1758536288.786:   -110  74  69
1758536288.786:   -217  74  69
1758536288.786:   -325  74  69
1758536288.786:   -375  74  69
1758536288.786:   -358  74  69
1758536288.786:   -306  74  69
1758536288.786:   -251  74  69
1758536288.786:   -199  74  69
1758536288.786:   -146  74  69
1758536288.786:   -117  74  69
1758536288.786:   -147  74  69
1758536288.786:   -237  74  69
1758536288.786:   -335  74  69
1758536288.786:   -380  74  69
1758536288.786:   -354  74  69
1758536288.786:   -292  74  69
1758536288.786:   -229  74  69
1758536288.786:   -167  74  69
1758536288.786:    -95  74  69
1758536288.786:    -30  74  69
1758536288.786:    -20  74  69
1758536288.786:    -88  74  69
1758536288.786:   -197  74  69
1758536288.786:   -277  74  69
1758536288.786:   -287  74  69
1758536288.786:   -246  74  69
1758536288.879:   -194  74  69
1758536288.879:   -142  74  69
1758536288.879:    -84  74  69
1758536288.879:    -31  74  69
1758536288.879:    -21  74  69
1758536288.879:    -79  74  69
1758536288.879:   -169  74  69
1758536288.879:   -228  74  69
1758536288.879:   -221  74  69
1758536288.879:   -173  74  69
1758536288.879:   -124  74  69
1758536288.879:    -86  74  69
1758536288.879:    -38  74  69
1758536288.879:     15  74  69
1758536288.879:     33  74  69
1758536288.879:    -22  74  69
1758536288.879:   -127  74  69
1758536288.879:   -213  74  69
1758536288.879:   -220  74  69
1758536288.879:   -149  74  69
1758536288.879:    -44  74  69
1758536288.879:     62  74  69
1758536288.879:    162  74  69
1758536288.879:    251  74  69
1758536288.879:    306  74  69
1758536288.879:    295  74  69
1758536288.879:    223  74  69
1758536288.879:    142  74  69
1758536288.879:    110  74  69
1758536288.879:    148  74  69
1758536288.879:    240  74  69
1758536288.879:    355  74  69
1758536288.879:    476  74  69
1758536288.879:    589  74  69
1758536288.879:    666  74  69
1758536288.879:    682  74  69
1758536288.879:    639  74  69
1758536288.879:    581  74  69
1758536288.879:    558  74  69
1758536289.020:    587  74  69
1758536289.020:    645  74  69
1758536289.020:    704  74  69
1758536289.020:    756  74  69
1758536289.020:    800  74  69
1758536289.020:    814  74  69
1758536289.020:    764  74  69
1758536289.020:    646  74  69
1758536289.020:    504  74  69
1758536289.020:    405  74  69
1758536289.020:    375  74  69
1758536289.020:    394  74  69
1758536289.020:    420  74  69
1758536289.020:    436  74  69
1758536289.020:    436  74  69
1758536289.020:    403  74  69
1758536289.020:    304  74  69
1758536289.020:    132  74  69
1758536289.020:    -67  74  69
1758536289.020:   -222  74  69
1758536289.020:   -295  74  69
1758536289.020:   -301  74  69
1758536289.020:   -280  74  69
1758536289.020:   -252  74  69
1758536289.020:   -223  74  69
1758536289.020:   -214  74  69
1758536289.020:   -260  74  69
1758536289.020:   -373  74  69
1758536289.020:   -515  74  69
1758536289.020:   -620  74  69
1758536289.020:   -650  74  69
1758536289.020:   -619  74  69
1758536289.020:   -562  74  69
1758536289.020:   -499  74  69
1758536289.020:   -433  74  69
1758536289.020:   -384  74  69
1758536289.020:   -393  74  69
1758536289.020:   -481  74  69
1758536289.020:   -610  74  69
1758536289.020:   -709  74  69
1758536289.020:   -728  74  69
1758536289.020:   -679  74  69
1758536289.020:   -602  74  69
1758536289.020:   -520  74  69
1758536289.020:   -431  74  69
1758536289.020:   -346  74  69
1758536289.020:   -305  74  69
1758536289.020:   -345  74  69
1758536289.020:   -445  74  69
1758536289.020:   -532  74  69
1758536289.020:   -541  74  69
1758536289.020:   -469  74  69
1758536289.020:   -366  74  69
1758536289.020:   -277  74  69
1758536289.020:   -204  74  69
1758536289.020:   -143  74  69
1758536289.020:   -120  74  69
1758536289.020:   -169  74  69
1758536289.020:   -277  74  69
1758536289.020:   -360  74  69
1758536289.020:   -324  74  69
1758536289.020:   -141  74  69
1758536289.020:    157  74  69
1758536289.020:    532  74  69
1758536289.051:    991  74  69
1758536289.051:   1544  74  69
1758536289.051:   2152  74  69
1758536289.051:   2732  74  69
1758536289.051:   3246  74  69
1758536289.051:   3736  74  69
1758536289.083:   4272  74  69
1758536289.083:   4845  74  69
1758536289.083:   5338  74  69
1758536289.083:   5612  74  69
1758536289.083:   5592  74  69
1758536289.083:   5289  74  69
1758536289.083:   4749  74  69
1758536289.083:   4017  74  69
1758536289.083:   3147  74  69
1758536289.083:   2220  74  69
1758536289.083:   1322  74  69
1758536289.083:    517  74  69
1758536289.083:   -164  74  69
1758536289.083:   -697  74  69
1758536289.083:  -1064  74  69
1758536289.083:  -1284  74  69
1758536289.083:  -1438  74  69
1758536289.083:  -1622  74  69
1758536289.083:  -1877  74  69
1758536289.083:  -2144  74  69
1758536289.083:  -2326  74  69
1758536289.083:  -2369  74  69
1758536289.083:  -2299  74  69
1758536289.083:  -2178  74  69
1758536289.083:  -2044  74  69
1758536289.083:  -1900  74  69
1758536289.083:  -1754  74  69
1758536289.083:  -1640  74  69
1758536289.083:  -1579  74  69
1758536289.083:  -1550  74  69
1758536289.083:  -1500  74  69
1758536289.083:  -1395  74  69
1758536289.083:  -1256  74  69
1758536289.083:  -1128  74  69
1758536289.083:  -1029  74  69
1758536289.083:   -943  74  69
1758536289.083:   -863  74  69
1758536289.083:   -810  74  69
1758536289.083:   -811  74  69
1758536289.176:   -850  71  72
1758536289.176:   -877  71  72
1758536289.176:   -847  71  72
1758536289.176:   -763  71  72
1758536289.176:   -661  71  72
1758536289.176:   -563  71  72
1758536289.176:   -470  71  72
1758536289.176:   -389  71  72
1758536289.176:   -350  71  72
1758536289.176:   -383  71  72
1758536289.176:   -471  71  72
1758536289.176:   -549  71  72
1758536289.176:   -556  71  72
1758536289.176:   -488  71  72
1758536289.176:   -385  71  72
1758536289.176:   -281  71  72
1758536289.176:   -186  71  72
1758536289.176:   -104  71  72
1758536289.176:    -62  71  72
1758536289.176:    -93  71  72
1758536289.176:   -187  71  72
1758536289.176:   -286  71  72
1758536289.176:   -323  71  72
1758536289.176:   -281  71  72
1758536289.176:   -192  71  72
1758536289.176:    -93  71  72
1758536289.176:     -3  71  72
1758536289.176:     72  71  72
1758536289.176:    108  71  72
1758536289.176:     75  71  72
1758536289.176:    -21  71  72
1758536289.176:   -123  71  72
1758536289.176:   -165  71  72
1758536289.176:   -126  71  72
1758536289.176:    -37  71  72
1758536289.176:     61  71  72
1758536289.176:    151  71  72
1758536289.176:    232  71  72
1758536289.176:    285  71  72
1758536289.461:    270  71  72
1758536289.490:    179  71  72
1758536289.490:     62  71  72
1758536289.490:     -4  71  72
1758536289.490:     19  71  72
1758536289.490:    105  71  72
1758536289.490:    206  71  72
1758536289.490:    299  71  72
1758536289.490:    382  71  72
1758536289.490:    438  71  72
1758536289.490:    432  71  72
1758536289.490:    351  71  72
1758536289.490:    239  71  72
1758536289.490:    172  71  72
1758536289.490:    191  71  72
1758536289.490:    274  71  72
1758536289.490:    374  71  72
1758536289.490:    465  71  72
1758536289.490:    550  71  72
1758536289.490:    616  71  72
1758536289.490:    628  71  72
1758536289.490:    561  71  72
1758536289.490:    449  71  72
1758536289.490:    366  71  72
1758536289.490:    365  71  72
1758536289.490:    437  71  72
1758536289.490:    537  71  72
1758536289.490:    633  71  72
1758536289.490:    719  71  72
1758536289.490:    785  71  72
1758536289.490:    797  71  72
1758536289.490:    730  71  72
1758536289.490:    612  71  72
1758536289.490:    513  71  72
1758536289.490:    494  71  72
1758536289.490:    553  71  72
1758536289.490:    645  71  72
1758536289.490:    735  71  72
1758536289.490:    817  71  72
1758536289.490:    888  71  72
1758536289.490:    917  71  72
1758536289.490:    872  71  72
1758536289.490:    766  71  72
1758536289.490:    663  71  72
1758536289.490:    630  71  72
1758536289.490:    681  71  72
1758536289.490:    779  71  72
1758536289.490:    883  71  72
1758536289.490:    977  71  72
1758536289.490:   1056  71  72
1758536289.490:   1095  71  72
1758536289.490:   1062  71  72
1758536289.490:    963  71  72
1758536289.490:    858  71  72
1758536289.490:    813  71  72
1758536289.490:    847  71  72
1758536289.490:    928  71  72
1758536289.490:   1014  71  72
1758536289.490:   1090  71  72
1758536289.490:   1155  71  72
1758536289.490:   1190  71  72
1758536289.490:   1162  71  72
1758536289.490:   1064  71  72
1758536289.490:    946  71  72
1758536289.490:    876  71  72
1758536289.521:    887  71  72
1758536289.521:    954  71  72
1758536289.521:   1035  71  72
1758536289.521:   1108  71  72
1758536289.521:   1166  71  72
1758536289.521:   1192  71  72
1758536289.521:   1152  71  72
1758536289.521:   1038  71  72
1758536289.521:    899  71  72
1758536289.521:    806  71  72
1758536289.521:    797  71  72
1758536289.521:    851  71  72
1758536289.521:    923  71  72
1758536289.521:    986  71  72
1758536289.521:   1038  71  72
1758536289.521:   1062  71  72
1758536289.521:   1023  71  72
1758536289.521:    903  71  72
1758536289.521:    739  71  72
1758536289.521:    603  71  72
1758536289.521:    544  71  72
1758536289.521:    549  71  72
1758536289.521:    576  71  72
1758536289.521:    594  71  72
1758536289.521:    600  71  72
1758536289.521:    583  71  72
1758536289.521:    509  71  72
1758536289.521:    356  71  72
1758536289.521:    152  71  72
1758536289.521:    -32  71  72
1758536289.521:   -137  71  72
1758536289.521:   -167  71  72
1758536289.521:   -165  71  72
1758536289.521:   -168  71  72
1758536289.521:   -180  71  72
1758536289.521:   -206  71  72
1758536289.521:   -272  71  72
1758536289.521:   -407  71  72
1758536289.521:   -595  71  72
1758536289.521:   -773  71  72
1758536289.521:   -876  71  72
1758536289.521:   -894  71  72
1758536289.521:   -863  71  72
1758536289.521:   -823  71  72
1758536289.521:   -790  71  72
1758536289.521:   -772  71  72
1758536289.521:   -793  71  72
1758536289.521:   -880  71  72
1758536289.521:  -1022  71  72
1758536289.521:  -1161  71  72
1758536289.521:  -1233  71  72
1758536289.521:  -1221  71  72
1758536289.521:  -1157  71  72
1758536289.521:  -1080  71  72
1758536289.521:  -1005  71  72
1758536289.521:   -939  71  72
1758536289.521:   -907  71  72
1758536289.521:   -945  71  72
1758536289.521:  -1052  71  72
1758536289.521:  -1166  71  72
1758536289.521:  -1219  71  72
1758536289.521:  -1182  71  72
1758536289.521:  -1088  71  72
1758536289.521:   -984  71  72
1758536289.552:   -889  71  72
1758536289.552:   -802  71  72
1758536289.552:   -743  71  72
1758536289.552:   -749  71  72
1758536289.552:   -831  71  72
1758536289.552:   -942  71  72
1758536289.552:  -1007  71  72
1758536289.552:   -983  71  72
1758536289.552:   -893  71  72
1758536289.552:   -786  71  72
1758536289.552:   -692  71  72
1758536289.552:   -611  71  72
1758536289.552:   -553  71  72
1758536289.552:   -547  71  72
1758536289.552:   -614  71  72
1758536289.552:   -720  71  72
1758536289.552:   -797  71  72
1758536289.552:   -793  71  72
1758536289.552:   -717  71  72
1758536289.552:   -611  71  72
1758536289.552:   -512  71  72
1758536289.552:   -430  71  72
1758536289.552:   -374  71  72
1758536289.552:   -369  71  72
1758536289.552:   -436  71  72
1758536289.552:   -549  71  72
1758536289.552:   -643  71  72
1758536289.552:   -662  71  72
1758536289.552:   -601  71  72
1758536289.552:   -505  71  72
1758536289.552:   -411  71  72
1758536289.552:   -331  71  72
1758536289.552:   -272  71  72
1758536289.552:   -257  71  72
1758536289.552:   -313  71  72
1758536289.552:   -423  71  72
1758536289.552:   -527  71  72
1758536289.552:   -560  71  72
1758536289.552:   -513  71  72
1758536289.552:   -421  71  72
1758536289.552:   -328  71  72
1758536289.552:   -249  71  72
1758536289.552:   -187  71  72
1758536289.552:   -163  71  72
1758536289.552:   -208  71  72
1758536289.552:   -317  71  72
1758536289.552:   -434  71  72
1758536289.552:   -490  71  72
1758536289.552:   -462  71  72
1758536289.552:   -383  71  72
1758536289.552:   -298  71  72
1758536289.552:   -227  71  72
1758536289.552:   -170  71  72
1758536289.552:   -146  71  72
1758536289.552:   -185  71  72
1758536289.552:   -290  71  72
1758536289.552:   -408  71  72
1758536289.552:   -471  71  72
1758536289.552:   -451  71  72
1758536289.552:   -377  71  72
1758536289.552:   -293  71  72
1758536289.552:   -221  71  72
1758536289.583:   -161  71  72
1758536289.583:   -131  71  72
1758536289.583:   -165  71  72
1758536289.583:   -269  71  72
1758536289.583:   -393  71  72
1758536289.583:   -464  71  72
1758536289.583:   -447  71  72
1758536289.583:   -369  71  72
1758536289.583:   -278  71  72
1758536289.583:   -201  71  72
1758536289.583:   -135  71  72
1758536289.583:    -95  71  72
1758536289.583:   -114  71  72
1758536289.583:   -211  71  72
1758536289.583:   -345  71  72
1758536289.583:   -442  71  72
1758536289.583:   -451  71  72
1758536289.583:   -386  71  72
1758536289.583:   -294  71  72
1758536289.583:   -208  71  72
1758536289.583:   -134  71  72
1758536289.583:    -83  71  72
1758536289.583:    -86  71  72
1758536289.583:   -165  71  72
1758536289.583:   -290  71  72
1758536289.583:   -391  71  72
1758536289.583:   -411  71  72
1758536289.614:   -355  71  72
1758536289.614:   -267  71  72
1758536289.614:   -183  71  72
1758536289.614:   -109  71  72
1758536289.614:    -52  71  72
1758536289.614:    -40  71  72
1758536289.614:   -100  71  72
1758536289.614:   -217  71  72
1758536289.614:   -325  71  72
1758536289.614:   -363  71  72
1758536289.614:   -318  71  72
1758536289.672:   -230  71  72
1758536289.692:   -139  71  72
1758536289.692:    -61  71  72
1758536289.692:     -4  71  72
1758536289.692:      9  71  72
1758536289.692:    -47  71  72
1758536289.692:   -158  71  72
1758536289.692:   -266  71  72
1758536289.692:   -309  71  72
1758536289.692:   -277  71  72
1758536289.692:   -202  71  72
1758536289.692:   -122  71  72
1758536289.692:    -50  71  72
1758536289.692:     11  71  72
1758536289.692:     34  71  72
1758536289.692:    -11  71  72
1758536289.692:   -121  71  72
1758536289.692:   -240  71  72
1758536289.692:   -298  71  72
1758536289.692:   -270  71  72
1758536289.692:   -186  71  72
1758536289.692:    -89  71  72
1758536289.692:     -5  71  72
1758536289.692:     60  71  72
1758536289.692:     86  71  72
1758536289.692:     43  71  72
1758536289.692:    -70  71  72
1758536289.692:   -201  71  72
1758536289.692:   -281  71  72
1758536289.692:   -274  71  72
1758536289.692:   -206  71  72
1758536289.692:   -120  71  72
1758536289.692:    -43  71  72
1758536289.692:     24  71  72
1758536289.692:     64  71  72
1758536289.692:     47  71  72
1758536289.692:    -41  71  72
1758536289.692:   -162  71  72
1758536289.692:   -247  71  72
1758536289.692:   -252  71  72
1758536289.692:   -188  71  72
1758536289.692:    -98  71  72
1758536289.692:    -14  71  72
1758536289.692:     57  71  72
1758536289.724:     99  71  72
1758536289.724:     83  71  72
1758536289.724:     -8  71  72
1758536289.724:   -139  71  72
1758536289.724:   -239  71  72
1758536289.724:   -257  71  72
1758536289.724:   -200  71  72
1758536289.724:   -108  71  72
1758536289.724:    -15  71  72
1758536289.724:     75  71  72
1758536289.724:    154  71  72
1758536289.724:    190  71  72
1758536289.724:    153  71  72
1758536289.724:     60  71  72
1758536289.724:    -22  71  72
1758536289.724:    -31  71  72
1758536289.881:     36  71  72
1758536289.881:    139  71  72
1758536289.881:    237  71  72
1758536289.881:    327  71  72
1758536289.881:    409  71  72
1758536289.881:    460  71  72
1758536289.881:    446  71  72
1758536289.881:    378  71  72
1758536289.881:    318  71  72
1758536289.881:    334  71  72
1758536289.881:    435  71  72
1758536289.881:    571  71  72
1758536289.881:    692  71  72
1758536289.881:    785  71  72
1758536289.881:    851  71  72
1758536289.881:    873  71  72
1758536289.881:    813  71  72
1758536289.881:    675  71  72
1758536289.881:    521  71  72
1758536289.881:    430  71  72
1758536289.881:    434  71  72
1758536289.881:    496  71  72
1758536289.881:    565  71  72
1758536289.881:    613  71  72
1758536289.881:    636  71  72
1758536289.881:    617  71  72
1758536289.881:    525  71  72
1758536289.881:    357  71  72
1758536289.881:    163  71  72
1758536289.881:     13  71  72
1758536289.881:    -57  71  72
1758536289.881:    -69  71  72
1758536289.881:    -62  71  72
1758536289.881:    -56  71  72
1758536289.881:    -52  71  72
1758536289.881:    -69  71  72
1758536289.881:   -144  71  72
1758536289.881:   -289  71  72
1758536289.881:   -457  71  72
1758536289.881:   -577  71  72
1758536289.881:   -607  71  72
1758536289.881:   -567  71  72
1758536289.881:   -502  71  72
1758536289.881:   -438  71  72
1758536289.881:   -379  71  72
1758536289.881:   -344  71  72
1758536289.881:   -368  71  72
1758536289.881:   -468  71  72
1758536289.881:   -603  71  72
1758536289.881:   -697  71  72
1758536289.881:   -704  71  72
1758536289.881:   -640  71  72
1758536289.881:   -552  71  72
1758536289.881:   -473  71  72
1758536289.881:   -402  71  72
1758536289.881:   -348  71  72
1758536289.881:   -343  71  72
1758536289.881:   -412  71  72
1758536289.881:   -527  71  72
1758536289.881:   -615  71  72
1758536289.881:   -618  71  72
1758536289.881:   -540  71  72
1758536289.881:   -428  71  72
1758536289.881:   -318  71  72
1758536289.913:   -215  71  72
1758536289.913:   -131  71  72
1758536289.913:   -101  71  72
1758536289.913:   -157  71  72
1758536289.913:   -276  71  72
1758536289.913:   -384  71  72
1758536289.913:   -417  71  72
1758536289.913:   -368  71  72
1758536289.913:   -271  71  72
1758536289.913:   -142  71  72
1758536289.913:     35  71  72
1758536289.913:    266  71  72
1758536289.913:    526  71  72
1758536289.913:    792  71  72
1758536289.913:   1093  71  72
1758536289.913:   1501  71  72
1758536289.913:   2062  71  72
1758536289.913:   2743  71  72
1758536289.913:   3466  71  72
1758536289.913:   4170  71  72
1758536289.913:   4831  71  72
1758536290.038:   5402  68  72
1758536290.071:   5772  68  72
1758536290.071:   5815  68  72
1758536290.071:   5493  68  72
1758536290.071:   4900  68  72
1758536290.071:   4195  68  72
1758536290.071:   3486  68  72
1758536290.071:   2787  68  72
1758536290.071:   2065  68  72
1758536290.071:   1314  68  72
1758536290.071:    581  68  72
1758536290.071:    -81  68  72
1758536290.071:   -648  68  72
1758536290.071:  -1119  68  72
1758536290.071:  -1487  68  72
1758536290.071:  -1744  68  72
1758536290.071:  -1895  68  72
1758536290.071:  -1970  68  72
1758536290.071:  -2000  68  72
1758536290.071:  -1999  68  72
1758536290.071:  -1966  68  72
1758536290.071:  -1923  68  72
1758536290.071:  -1908  68  72
1758536290.071:  -1942  68  72
1758536290.071:  -1988  68  72
1758536290.071:  -1974  68  72
1758536290.071:  -1850  68  72
1758536290.071:  -1637  68  72
1758536290.071:  -1397  68  72
1758536290.071:  -1181  68  72
1758536290.071:  -1011  68  72
1758536290.071:   -899  68  72
1758536290.071:   -867  68  72
1758536290.071:   -924  68  72
1758536290.071:  -1024  68  72
1758536290.071:  -1084  68  72
1758536290.071:  -1039  68  72
1758536290.071:   -901  68  72
1758536290.071:   -730  68  72
1758536290.071:   -582  68  72
1758536290.071:   -472  68  72
1758536290.071:   -400  68  72
1758536290.071:   -380  68  72
1758536290.071:   -424  68  72
1758536290.071:   -512  68  72
1758536290.071:   -579  68  72
1758536290.071:   -569  68  72
1758536290.071:   -481  68  72
1758536290.071:   -359  68  72
1758536290.071:   -248  68  72
1758536290.071:   -160  68  72
1758536290.071:    -96  68  72
1758536290.071:    -74  68  72
1758536290.071:   -118  68  72
1758536290.071:   -218  68  72
1758536290.071:   -316  68  72
1758536290.071:   -346  68  72
1758536290.071:   -290  68  72
1758536290.071:   -183  68  72
1758536290.071:    -72  68  72
1758536290.071:     22  68  72
1758536290.071:     91  68  72
1758536290.071:    117  68  72
1758536290.071:     77  68  72
1758536290.075:    -22  68  72
1758536290.102:   -124  68  72
1758536290.102:   -167  68  72
1758536290.102:   -129  68  72
1758536290.102:    -40  68  72
1758536290.102:     58  68  72
1758536290.102:    146  68  72
1758536290.102:    226  68  72
1758536290.102:    277  68  72
1758536290.102:    264  68  72
1758536290.102:    178  68  72
1758536290.102:     64  68  72
1758536290.102:     -4  68  72
1758536290.102:     15  68  72
1758536290.102:     99  68  72
1758536290.102:    199  68  72
1758536290.102:    286  68  72
1758536290.102:    357  68  72
1758536290.102:    399  68  72
1758536290.102:    384  68  72
1758536290.102:    300  68  72
1758536290.102:    188  68  72
1758536290.102:    116  68  72
1758536290.102:    127  68  72
1758536290.102:    204  68  72
1758536290.102:    300  68  72
1758536290.102:    387  68  72
1758536290.102:    464  68  72
1758536290.102:    522  68  72
1758536290.102:    531  68  72
1758536290.102:    468  68  72
1758536290.102:    361  68  72
1758536290.102:    280  68  72
1758536290.102:    280  68  72
1758536290.102:    355  68  72
1758536290.102:    461  68  72
1758536290.102:    560  68  72
1758536290.102:    646  68  72
1758536290.102:    708  68  72
1758536290.102:    719  68  72
1758536290.102:    655  68  72
1758536290.102:    541  68  72
1758536290.102:    449  68  72
1758536290.102:    439  68  72
1758536290.102:    512  68  72
1758536290.102:    619  68  72
1758536290.275:    714  68  72
1758536290.275:    790  68  72
1758536290.275:    848  68  72
1758536290.275:    869  68  72
1758536290.275:    823  68  72
1758536290.275:    721  68  72
1758536290.275:    619  68  72
1758536290.275:    583  68  72
1758536290.275:    631  68  72
1758536290.275:    728  68  72
1758536290.275:    832  68  72
1758536290.275:    921  68  72
1758536290.275:    987  68  72
1758536290.275:   1008  68  72
1758536290.275:    963  68  72
1758536290.275:    865  68  72
1758536290.275:    769  68  72
1758536290.275:    735  68  72
1758536290.275:    782  68  72
1758536290.275:    882  68  72
1758536290.275:    992  68  72
1758536290.275:   1089  68  72
1758536290.275:   1163  68  72
1758536290.275:   1192  68  72
1758536290.275:   1149  68  72
1758536290.275:   1043  68  72
1758536290.275:    925  68  72
1758536290.275:    861  68  72
1758536290.275:    880  68  72
1758536290.275:    958  68  72
1758536290.275:   1052  68  72
1758536290.275:   1139  68  72
1758536290.275:   1213  68  72
1758536290.275:   1254  68  72
1758536290.275:   1233  68  72
1758536290.275:   1142  68  72
1758536290.275:   1023  68  72
1758536290.275:    945  68  72
1758536290.275:    947  68  72
1758536290.275:   1015  68  72
1758536290.275:   1105  68  72
1758536290.275:   1186  68  72
1758536290.275:   1251  68  72
1758536290.275:   1282  68  72
1758536290.275:   1251  68  72
1758536290.275:   1142  68  72
1758536290.275:    994  68  72
1758536290.275:    877  68  72
1758536290.275:    839  68  72
1758536290.275:    867  68  72
1758536290.275:    912  68  72
1758536290.275:    941  68  72
1758536290.275:    954  68  72
1758536290.275:    951  68  72
1758536290.275:    902  68  72
1758536290.275:    777  68  72
1758536290.275:    594  68  72
1758536290.275:    422  68  72
1758536290.275:    322  68  72
1758536290.275:    296  68  72
1758536290.275:    302  68  72
1758536290.275:    300  68  72
1758536290.275:    285  68  72
1758536290.275:    258  68  72
1758536290.307:    192  68  72
1758536290.307:     53  68  72
1758536290.307:   -147  68  72
1758536290.307:   -340  68  72
1758536290.307:   -459  68  72
1758536290.307:   -493  68  72
1758536290.378:   -485  68  72
1758536290.400:   -480  68  72
1758536290.400:   -487  68  72
1758536290.400:   -505  68  72
1758536290.400:   -551  68  72
1758536290.400:   -656  68  72
1758536290.400:   -817  68  72
1758536290.400:   -975  68  72
1758536290.400:  -1064  68  72
1758536290.400:  -1067  68  72
1758536290.400:  -1019  68  72
1758536290.400:   -966  68  72
1758536290.400:   -923  68  72
1758536290.400:   -887  68  72
1758536290.400:   -875  68  72
1758536290.400:   -919  68  72
1758536290.400:  -1028  68  72
1758536290.400:  -1152  68  72
1758536290.400:  -1221  68  72
1758536290.400:  -1200  68  72
1758536290.400:  -1113  68  72
1758536290.400:  -1010  68  72
1758536290.400:   -919  68  72
1758536290.400:   -845  68  72
1758536290.400:   -800  68  72
1758536290.400:   -810  68  72
1758536290.400:   -886  68  72
1758536290.400:   -989  68  72
1758536290.400:  -1052  68  72
1758536290.400:  -1034  68  72
1758536290.400:   -949  68  72
1758536290.400:   -843  68  72
1758536290.400:   -751  68  72
1758536290.400:   -676  68  72
1758536290.400:   -626  68  72
1758536290.400:   -625  68  72
1758536290.400:   -688  68  72
1758536290.400:   -783  68  72
1758536290.400:   -852  68  72
1758536290.400:   -849  68  72
1758536290.400:   -781  68  72
1758536290.400:   -684  68  72
1758536290.400:   -591  68  72
1758536290.400:   -511  68  72
1758536290.400:   -456  68  72
1758536290.400:   -453  68  72
1758536290.400:   -520  68  72
1758536290.400:   -630  68  72
1758536290.400:   -715  68  72
1758536290.400:   -725  68  72
1758536290.400:   -662  68  72
1758536290.400:   -566  68  72
1758536290.400:   -474  68  72
1758536290.400:   -395  68  72
1758536290.400:   -339  68  72
1758536290.400:   -330  68  72
1758536290.400:   -390  68  72
1758536290.400:   -500  68  72
1758536290.400:   -597  68  72
1758536290.400:   -623  68  72
1758536290.400:   -570  68  72
1758536290.400:   -479  68  72
1758536290.400:   -393  68  72
1758536290.400:   -322  68  72
1758536290.400:   -268  68  72
1758536290.431:   -248  68  72
1758536290.431:   -289  68  72
1758536290.431:   -388  68  72
1758536290.431:   -494  68  72
1758536290.431:   -539  68  72
1758536290.431:   -501  68  72
1758536290.431:   -411  68  72
1758536290.826:   -316  68  72
1758536290.826:   -238  68  72
1758536290.826:   -180  68  72
1758536290.826:   -157  68  72
1758536290.826:   -195  68  72
1758536290.826:   -298  68  72
1758536290.826:   -416  68  72
1758536290.826:   -482  68  72
1758536290.826:   -462  68  72
1758536290.826:   -383  68  72
1758536290.826:   -290  68  72
1758536290.826:   -212  68  72
1758536290.826:   -150  68  72
1758536290.826:   -118  68  72
1758536290.826:   -142  68  72
1758536290.826:   -231  68  72
1758536290.826:   -343  68  72
1758536290.826:   -413  68  72
1758536290.826:   -404  68  72
1758536290.826:   -339  68  72
1758536290.826:   -259  68  72
1758536290.826:   -190  68  72
1758536290.826:   -131  68  72
1758536290.826:    -94  68  72
1758536290.826:   -107  68  72
1758536290.826:   -190  68  72
1758536290.826:   -308  68  72
1758536290.826:   -394  68  72
1758536290.826:   -399  68  72
1758536290.826:   -334  68  72
1758536290.826:   -243  68  72
1758536290.826:   -159  68  72
1758536290.826:    -88  68  72
1758536290.826:    -39  68  72
1758536290.826:    -40  68  72
1758536290.826:   -112  68  72
1758536290.826:   -228  68  72
1758536290.826:   -322  68  72
1758536290.826:   -341  68  72
1758536290.826:   -290  68  72
1758536290.826:   -214  68  72
1758536290.826:   -148  68  72
1758536290.826:    -94  68  72
1758536290.826:    -51  68  72
1758536290.826:    -42  68  72
1758536290.826:   -101  68  72
1758536290.826:   -214  68  72
1758536290.826:   -321  68  72
1758536290.826:   -357  68  72
1758536290.826:   -315  68  72
1758536290.826:   -236  68  72
1758536290.826:   -161  68  72
1758536290.826:   -100  68  72
1758536290.826:    -51  68  72
1758536290.826:    -35  68  72
1758536290.826:    -84  68  72
1758536290.826:   -193  68  72
1758536290.826:   -307  68  72
1758536290.826:   -360  68  72
1758536290.826:   -332  68  72
1758536290.826:   -258  68  72
1758536290.826:   -180  68  72
1758536290.826:   -112  68  72
1758536290.826:    -56  68  72
1758536290.858:    -28  68  72
1758536290.858:    -59  68  72
1758536290.858:   -152  68  72
1758536290.858:   -263  68  72
1758536290.858:   -327  68  72
1758536290.858:   -317  68  72
1758536290.858:   -252  68  72
1758536290.858:   -170  68  72
1758536290.858:    -96  68  72
1758536290.858:    -34  68  72
1758536290.858:     -3  68  72
1758536290.858:    -29  68  72
1758536290.858:   -113  68  72
1758536290.858:   -214  68  72
1758536290.858:   -276  68  72
1758536290.858:   -268  68  72
1758536290.858:   -211  68  72
1758536290.858:   -137  68  72
1758536290.858:    -63  68  72
1758536290.858:      9  68  72
1758536290.858:     60  68  72
1758536290.858:     56  68  72
1758536290.858:    -20  68  72
1758536290.858:   -132  68  72
1758536290.858:   -213  68  72
1758536290.858:   -220  68  72
1758536290.858:   -166  68  72
1758536290.858:    -89  68  72
1758536290.858:    -17  68  72
1758536290.858:     50  68  72
1758536290.858:    100  68  72
1758536290.858:    100  68  72
1758536290.858:     30  68  72
1758536290.858:    -82  68  72
1758536290.858:   -172  68  72
1758536290.858:   -191  68  72
1758536290.858:   -147  68  72
1758536290.858:    -78  68  72
1758536290.858:     -9  68  72
1758536290.858:     61  68  72
1758536290.858:    122  68  72
1758536290.858:    141  68  72
1758536290.858:     87  68  72
1758536290.858:    -18  68  72
1758536290.858:   -105  68  72
1758536290.858:   -115  68  72
1758536290.858:    -46  68  72
1758536290.858:     57  68  72
1758536290.858:    159  68  72
1758536290.858:    257  68  72
1758536290.858:    347  68  72
1758536290.858:    401  68  72
1758536290.858:    381  68  72
1758536290.858:    297  68  72
1758536290.858:    211  68  72
1758536290.858:    193  68  72
1758536290.858:    259  68  72
1758536290.858:    372  68  72
1758536290.858:    490  68  72
1758536290.858:    601  68  72
1758536290.858:    707  68  72
1758536290.858:    782  68  72
1758536290.858:    790  68  72
1758536290.858:    720  68  72
1758536290.888:    622  68  72
1758536290.888:    561  68  72
1758536290.888:    566  68  72
1758536290.888:    614  68  72
1758536290.888:    667  68  72
1758536290.888:    712  68  72
1758536290.888:    750  68  72
1758536290.888:    766  68  72
1758536290.888:    728  68  72
1758536290.888:    624  68  72
1758536290.888:    491  68  72
1758536290.888:    389  68  72
1758536290.888:    351  68  72
1758536290.888:    358  68  72
1758536290.888:    371  68  72
1758536290.888:    367  68  72
1758536290.888:    345  68  72
1758536290.888:    294  68  72
1758536290.888:    192  68  72
1758536290.888:     28  68  72
1758536290.888:   -164  68  72
1758536290.888:   -319  68  72
1758536290.888:   -392  68  72
1758536290.888:   -389  68  72
1758536290.888:   -347  68  72
1758536290.888:   -300  68  72
1758536290.888:   -257  68  72
1758536290.888:   -233  68  72
1758536290.888:   -255  68  72
1758536290.888:   -341  68  72
1758536290.888:   -466  68  72
1758536290.888:   -569  68  72
1758536290.888:   -601  68  72
1758536290.888:   -566  68  72
1758536290.888:   -501  68  72
1758536290.888:   -435  68  72
1758536290.888:   -373  68  72
1758536290.888:   -322  68  72
1758536290.888:   -311  68  72
1758536290.888:   -369  68  72
1758536290.888:   -482  68  72
1758536290.888:   -586  68  72
1758536290.888:   -621  68  72
1758536290.888:   -577  68  72
1758536290.888:   -490  68  72
1758536290.888:   -398  68  72
1758536290.888:   -310  68  72
1758536290.888:   -232  68  72
1758536290.888:   -187  68  72
1758536290.888:   -204  68  72
1758536290.888:   -277  68  72
1758536290.888:   -357  68  72
1758536290.888:   -388  68  72
1758536290.888:   -356  68  72
1758536290.888:   -284  68  72
1758536290.888:   -204  68  72
1758536290.888:   -127  68  72
1758536290.888:    -56  68  72
1758536290.888:     -5  68  72
1758536290.888:     17  68  72
1758536290.888:     34  68  72
1758536290.919:    109  68  72
1758536290.919:    307  68  72
1758536290.919:    662  68  72
1758536290.919:   1162  68  72
1758536290.919:   1767  68  72
1758536290.919:   2434  68  72
1758536290.919:   3115  68  72
1758536290.919:   3758  68  72
1758536290.919:   4325  68  72
1758536290.919:   4798  68  72
1758536290.919:   5174  68  72
1758536290.919:   5424  68  72
1758536290.919:   5490  68  72
1758536290.919:   5319  68  72
1758536290.919:   4919  68  72
1758536290.919:   4357  68  72
1758536290.919:   3709  68  72
1758536290.919:   2989  68  72
1758536290.919:   2174  68  72
1758536290.919:   1268  68  72
1758536290.919:    365  68  72
1758536290.919:   -396  68  72
1758536290.919:   -921  68  72
1758536290.919:  -1223  68  72
1758536290.919:  -1390  68  72
1758536290.919:  -1505  68  72
1758536290.919:  -1609  68  72
1758536290.919:  -1718  68  72
1758536290.919:  -1846  68  72
1758536290.919:  -2000  68  72
1758536290.919:  -2145  68  72
1758536290.919:  -2225  68  72
1758536290.919:  -2203  68  72
1758536290.919:  -2090  68  72
1758536290.919:  -1929  68  72
1758536290.919:  -1745  68  72
1758536290.919:  -1542  68  72
1758536290.919:  -1336  68  72
1758536290.919:  -1173  68  72
1758536290.919:  -1104  68  72
1758536290.919:  -1122  68  72
1758536290.919:  -1166  68  72
1758536290.919:  -1167  68  72
1758536290.919:  -1102  68  72
1758536290.919:   -993  68  72
1758536290.919:   -871  68  72
1758536290.919:   -744  68  72
1758536290.919:   -619  68  72
1758536290.919:   -530  68  72
1758536290.919:   -518  68  72
1758536290.919:   -585  68  72
1758536290.919:   -673  68  72
1758536290.919:   -709  68  72
1758536290.919:   -665  68  72
1758536290.919:   -566  68  72
1758536290.919:   -451  68  72
1758536290.919:   -339  68  72
1758536290.919:   -241  68  72
1758536290.919:   -181  68  72
1758536290.919:   -196  68  72
1758536290.919:   -283  68  72
1758536290.919:   -387  68  72
1758536290.919:   -439  68  72
1758536290.919:   -410  68  72
1758536290.967:   -327  68  70
1758536291.135:   -230  68  70
1758536291.157:   -140  68  70
1758536291.157:    -63  68  70
1758536291.157:    -17  68  70
1758536291.157:    -33  68  70
1758536291.157:   -112  68  70
1758536291.157:   -206  68  70
1758536291.157:   -255  68  70
1758536291.157:   -228  68  70
1758536291.157:   -149  68  70
1758536291.157:    -54  68  70
1758536291.157:     42  68  70
1758536291.157:    132  68  70
1758536291.157:    194  68  70
1758536291.157:    190  68  70
1758536291.157:    109  68  70
1758536291.157:     -3  68  70
1758536291.157:    -71  68  70
1758536291.157:    -54  68  70
1758536291.157:     28  68  70
1758536291.157:    130  68  70
1758536291.157:    221  68  70
1758536291.157:    299  68  70
1758536291.157:    355  68  70
1758536291.157:    361  68  70
1758536291.157:    298  68  70
1758536291.157:    197  68  70
1758536291.157:    120  68  70
1758536291.157:    118  68  70
1758536291.157:    184  68  70
1758536291.157:    280  68  70
1758536291.157:    370  68  70
1758536291.157:    446  68  70
1758536291.157:    500  68  70
1758536291.157:    508  68  70
1758536291.157:    446  68  70
1758536291.157:    333  68  70
1758536291.157:    229  68  70
1758536291.157:    194  68  70
1758536291.157:    239  68  70
1758536291.157:    332  68  70
1758536291.157:    433  68  70
1758536291.157:    520  68  70
1758536291.157:    581  68  70
1758536291.157:    595  68  70
1758536291.157:    545  68  70
1758536291.157:    449  68  70
1758536291.157:    359  68  70
1758536291.157:    331  68  70
1758536291.157:    375  68  70
1758536291.157:    459  68  70
1758536291.157:    549  68  70
1758536291.157:    635  68  70
1758536291.157:    710  68  70
1758536291.157:    747  68  70
1758536291.157:    713  68  70
1758536291.157:    616  68  70
1758536291.157:    516  68  70
1758536291.157:    480  68  70
1758536291.157:    527  68  70
1758536291.157:    622  68  70
1758536291.157:    719  68  70
1758536291.157:    806  68  70
1758536291.157:    881  68  70
1758536291.157:    925  68  70
1758536291.188:    904  68  70
1758536291.188:    815  68  70
1758536291.188:    711  68  70
1758536291.188:    660  68  70
1758536291.188:    689  68  70
1758536291.188:    772  68  70
1758536291.188:    866  68  70
1758536291.188:    953  68  70
1758536291.188:   1035  68  70
1758536291.188:   1090  68  70
1758536291.188:   1081  68  70
1758536291.188:    995  68  70
1758536291.188:    879  68  70
1758536291.188:    806  68  70
1758536291.188:    817  68  70
1758536291.188:    892  68  70
1758536291.188:    983  68  70
1758536291.188:   1059  68  70
1758536291.188:   1122  68  70
1758536291.188:   1163  68  70
1758536291.188:   1152  68  70
1758536291.188:   1071  68  70
1758536291.188:    951  68  70
1758536291.188:    858  68  70
1758536291.188:    844  68  70
1758536291.188:    899  68  70
1758536291.188:    981  68  70
1758536291.188:   1056  68  70
1758536291.188:   1122  68  70
1758536291.188:   1168  68  70
1758536291.188:   1167  68  70
1758536291.188:   1093  68  70
1758536291.188:    967  68  70
1758536291.188:    853  68  70
1758536291.188:    809  68  70
1758536291.188:    840  68  70
1758536291.188:    907  68  70
1758536291.188:    971  68  70
1758536291.188:   1018  68  70
1758536291.188:   1038  68  70
1758536291.188:   1004  68  70
1758536291.188:    896  68  70
1758536291.188:    735  68  70
1758536291.188:    581  68  70
1758536291.188:    491  68  70
1758536291.188:    475  68  70
1758536291.188:    499  68  70
1758536291.188:    526  68  70
1758536291.188:    540  68  70
1758536291.188:    535  68  70
1758536291.188:    483  68  70
1758536291.188:    355  68  70
1758536291.188:    158  68  70
1758536291.188:    -48  68  70
1758536291.188:   -197  68  70
1758536291.188:   -262  68  70
1758536291.188:   -274  68  70
1758536291.188:   -275  68  70
1758536291.188:   -287  68  70
1758536291.188:   -309  68  70
1758536291.188:   -357  68  70
1758536291.188:   -459  68  70
1758536291.188:   -619  68  70
1758536291.188:   -795  68  70
1758536291.220:   -921  68  70
1758536291.220:   -962  68  70
1758536291.220:   -938  68  70
1758536291.220:   -893  68  70
1758536291.220:   -850  68  70
1758536291.220:   -818  68  70
1758536291.220:   -811  68  70
1758536291.220:   -860  68  70
1758536291.220:   -975  68  70
1758536291.220:  -1112  68  70
1758536291.220:  -1204  68  70
1758536291.220:  -1212  68  70
1758536291.220:  -1152  68  70
1758536291.220:  -1069  68  70
1758536291.220:   -992  68  70
1758536291.220:   -926  68  70
1758536291.220:   -886  68  70
1758536291.220:   -901  68  70
1758536291.220:   -984  68  70
1758536291.220:  -1093  68  70
1758536291.220:  -1164  68  70
1758536291.220:  -1155  68  70
1758536291.220:  -1079  68  70
1758536291.220:   -979  68  70
1758536291.220:   -882  68  70
1758536291.220:   -791  68  70
1758536291.220:   -720  68  70
1758536291.220:   -704  68  70
1758536291.220:   -763  68  70
1758536291.220:   -870  68  70
1758536291.220:   -954  68  70
1758536291.220:   -964  68  70
1758536291.220:   -903  68  70
1758536291.220:   -812  68  70
1758536291.220:   -720  68  70
1758536291.220:   -634  68  70
1758536291.220:   -560  68  70
1758536291.220:   -530  68  70
1758536291.220:   -574  68  70
1758536291.220:   -676  68  70
1758536291.251:   -772  68  70
1758536291.251:   -798  68  70
1758536291.251:   -743  68  70
1758536291.251:   -648  68  70
1758536291.251:   -554  68  70
1758536291.251:   -476  68  70
1758536291.251:   -415  68  70
1758536291.251:   -389  68  70
1758536291.251:   -429  68  70
1758536291.251:   -528  68  70
1758536291.251:   -633  68  70
1758536291.251:   -675  68  70
1758536291.251:   -633  68  70
1758536291.251:   -539  68  70
1758536291.251:   -441  68  70
1758536291.251:   -362  68  70
1758536291.409:   -303  68  70
1758536291.409:   -281  68  70
1758536291.409:   -322  68  70
1758536291.409:   -426  68  70
1758536291.409:   -543  68  70
1758536291.409:   -607  68  70
1758536291.409:   -586  68  70
1758536291.409:   -507  68  70
1758536291.409:   -414  68  70
1758536291.409:   -330  68  70
1758536291.409:   -260  68  70
1758536291.409:   -218  68  70
1758536291.409:   -238  68  70
1758536291.409:   -334  68  70
1758536291.409:   -462  68  70
1758536291.409:   -552  68  70
1758536291.409:   -556  68  70
1758536291.409:   -490  68  70
1758536291.409:   -398  68  70
1758536291.409:   -314  68  70
1758536291.409:   -247  68  70
1758536291.409:   -210  68  70
1758536291.409:   -226  68  70
1758536291.409:   -308  68  70
1758536291.409:   -422  68  70
1758536291.409:   -505  68  70
1758536291.409:   -516  68  70
1758536291.409:   -464  68  70
1758536291.409:   -386  68  70
1758536291.409:   -311  68  70
1758536291.409:   -243  68  70
1758536291.409:   -196  68  70
1758536291.409:   -201  68  70
1758536291.409:   -279  68  70
1758536291.409:   -402  68  70
1758536291.409:   -500  68  70
1758536291.409:   -520  68  70
1758536291.409:   -465  68  70
1758536291.409:   -376  68  70
1758536291.409:   -290  68  70
1758536291.409:   -213  68  70
1758536291.409:   -152  68  70
1758536291.409:   -137  68  70
1758536291.409:   -193  68  70
1758536291.409:   -302  68  70
1758536291.409:   -400  68  70
1758536291.409:   -428  68  70
1758536291.409:   -381  68  70
1758536291.409:   -299  68  70
1758536291.409:   -217  68  70
1758536291.409:   -143  68  70
1758536291.409:    -81  68  70
1758536291.409:    -57  68  70
1758536291.409:   -105  68  70
1758536291.409:   -217  68  70
1758536291.409:   -330  68  70
1758536291.409:   -377  68  70
1758536291.409:   -339  68  70
1758536291.409:   -253  68  70
1758536291.409:   -163  68  70
1758536291.409:    -86  68  70
1758536291.409:    -24  68  70
1758536291.409:      0  68  70
1758536291.409:    -41  68  70
1758536291.440:   -146  68  70
1758536291.440:   -261  68  70
1758536291.440:   -321  68  70
1758536291.440:   -302  68  70
1758536291.440:   -232  68  70
1758536291.440:   -151  68  70
1758536291.472:    -79  68  70
1758536291.472:    -15  68  70
1758536291.472:     20  68  70
1758536291.472:     -7  68  70
1758536291.472:   -102  68  70
1758536291.472:   -219  68  70
1758536291.472:   -291  68  70
1758536291.472:   -283  68  70
1758536291.472:   -216  68  70
1758536291.472:   -132  68  70
1758536291.472:    -53  68  70
1758536291.472:     15  68  70
1758536291.472:     54  68  70
1758536291.472:     31  68  70
1758536291.472:    -63  68  70
1758536291.472:   -183  68  70
1758536291.472:   -261  68  70
1758536291.472:   -260  68  70
1758536291.472:   -200  68  70
1758536291.472:   -120  68  70
1758536291.472:    -43  68  70
1758536291.472:     31  68  70
1758536291.472:     87  68  70
1758536291.472:     86  68  70
1758536291.472:      7  68  70
1758536291.472:   -118  68  70
1758536291.472:   -217  68  70
1758536291.472:   -241  68  70
1758536291.472:   -196  68  70
1758536291.472:   -122  68  70
1758536291.472:    -47  68  70
1758536291.472:     24  68  70
1758536291.472:     78  68  70
1758536291.472:     80  68  70
1758536291.472:      6  68  70
1758536291.472:   -117  68  70
1758536291.472:   -218  68  70
1758536291.472:   -242  68  70
1758536291.472:   -195  68  70
1758536291.715:   -118  68  70
1758536291.741:    -43  68  70
1758536291.741:     34  68  70
1758536291.741:    111  68  70
1758536291.741:    160  68  70
1758536291.741:    141  68  70
1758536291.741:     54  68  70
1758536291.741:    -39  68  70
1758536291.741:    -69  68  70
1758536291.741:    -13  68  70
1758536291.741:     91  68  70
1758536291.741:    195  68  70
1758536291.741:    281  68  70
1758536291.741:    353  68  70
1758536291.741:    401  68  70
1758536291.741:    398  68  70
1758536291.741:    340  68  70
1758536291.741:    274  68  70
1758536291.741:    265  68  70
1758536291.741:    342  68  70
1758536291.741:    472  68  70
1758536291.741:    605  68  70
1758536291.741:    716  68  70
1758536291.741:    801  68  70
1758536291.741:    845  68  70
1758536291.741:    813  68  70
1758536291.741:    698  68  70
1758536291.741:    551  68  70
1758536291.741:    453  68  70
1758536291.741:    444  68  70
1758536291.741:    499  68  70
1758536291.741:    567  68  70
1758536291.741:    621  68  70
1758536291.741:    660  68  70
1758536291.741:    669  68  70
1758536291.741:    610  68  70
1758536291.741:    465  68  70
1758536291.741:    277  68  70
1758536291.741:    122  68  70
1758536291.741:     44  68  70
1758536291.741:     29  68  70
1758536291.741:     34  68  70
1758536291.741:     35  68  70
1758536291.741:     38  68  70
1758536291.741:     31  68  70
1758536291.741:    -24  68  70
1758536291.741:   -152  68  70
1758536291.741:   -321  68  70
1758536291.741:   -459  68  70
1758536291.741:   -510  68  70
1758536291.741:   -479  68  70
1758536291.741:   -414  68  70
1758536291.741:   -350  68  70
1758536291.741:   -292  68  70
1758536291.741:   -249  68  70
1758536291.741:   -250  68  70
1758536291.741:   -324  68  70
1758536291.741:   -450  68  70
1758536291.741:   -563  68  70
1758536291.741:   -605  68  70
1758536291.741:   -570  68  70
1758536291.741:   -497  68  70
1758536291.741:   -424  68  70
1758536291.741:   -359  68  70
1758536291.741:   -306  68  70
1758536291.773:   -290  68  70
1758536291.773:   -340  68  70
1758536291.773:   -443  68  70
1758536291.773:   -541  68  70
1758536291.773:   -572  68  70
1758536291.773:   -524  68  70
1758536291.773:   -426  68  70
1758536291.773:   -317  68  70
1758536291.773:   -214  68  70
1758536291.773:   -132  68  70
1758536291.773:    -99  68  70
1758536291.773:   -141  68  70
1758536291.773:   -241  68  70
1758536291.773:   -341  68  70
1758536291.773:   -382  68  70
1758536291.773:   -342  68  70
1758536291.773:   -231  68  70
1758536291.773:    -61  68  70
1758536291.773:    166  68  70
1758536291.773:    447  68  70
1758536291.773:    763  68  70
1758536291.773:   1100  68  70
1758536291.773:   1471  68  70
1758536291.773:   1916  68  70
1758536291.773:   2460  68  70
1758536291.773:   3092  68  70
1758536291.773:   3769  68  70
1758536291.773:   4443  68  70
1758536291.773:   5062  68  70
1758536291.773:   5548  68  70
1758536291.773:   5789  68  70
1758536291.773:   5689  68  70
1758536291.773:   5247  68  70
1758536291.773:   4572  68  70
1758536291.773:   3816  68  70
1758536291.773:   3081  68  70
1758536291.773:   2375  68  70
1758536291.773:   1669  68  70
1758536291.773:    969  68  70
1758536291.773:    330  68  70
1758536291.773:   -202  68  70
1758536291.773:   -632  68  70
1758536291.773:  -1003  68  70
1758536291.773:  -1338  68  70
1758536291.773:  -1616  68  70
1758536291.773:  -1811  68  70
1758536291.773:  -1926  68  70
1758536291.773:  -1990  68  70
1758536291.773:  -2021  68  70
1758536291.773:  -2020  68  70
1758536291.773:  -1995  68  70
1758536291.773:  -1982  68  70
1758536291.773:  -2013  68  70
1758536291.773:  -2065  68  70
1758536291.773:  -2067  68  70
1758536291.773:  -1959  68  70
1758536291.773:  -1753  68  70
1758536291.773:  -1514  68  70
1758536291.773:  -1305  68  70
1758536291.773:  -1148  68  70
1758536291.773:  -1043  68  70
1758536291.805:  -1000  69  69
1758536291.805:  -1026  69  69
1758536291.805:  -1096  69  69
1758536291.805:  -1146  69  69
1758536291.805:  -1116  69  69
1758536291.805:  -1000  69  69
1758536291.805:   -844  69  69
1758536291.805:   -700  69  69
1758536291.805:   -586  69  69
1758536291.805:   -505  69  69
1758536291.805:   -467  69  69
1758536291.805:   -492  69  69
1758536291.805:   -567  69  69
1758536291.805:   -639  69  69
1758536291.805:   -646  69  69
1758536291.805:   -573  69  69
1758536291.805:   -457  69  69
1758536291.805:   -343  69  69
1758536291.805:   -248  69  69
1758536291.805:   -171  69  69
1758536291.805:   -128  69  69
1758536291.805:   -145  69  69
1758536291.805:   -226  69  69
1758536291.805:   -320  69  69
1758536291.805:   -361  69  69
1758536291.805:   -320  69  69
1758536291.805:   -225  69  69
1758536291.805:   -123  69  69
1758536291.805:    -36  69  69
1758536291.805:     36  69  69
1758536291.805:     83  69  69
1758536291.805:     74  69  69
1758536291.805:     -4  69  69
1758536291.805:   -112  69  69
1758536291.805:   -180  69  69
1758536291.805:   -168  69  69
1758536291.805:    -91  69  69
1758536291.805:      6  69  69
1758536291.805:     95  69  69
1758536291.805:    172  69  69
1758536291.805:    222  69  69
1758536291.805:    218  69  69
1758536291.805:    143  69  69
1758536291.805:     35  69  69
1758536291.884:    -38  69  69
1758536291.884:    -33  69  69
1758536291.884:     39  69  69
1758536291.884:    136  69  69
1758536291.884:    228  69  69
1758536291.884:    314  69  69
1758536291.884:    383  69  69
1758536291.884:    401  69  69
1758536291.884:    345  69  69
1758536291.884:    240  69  69
1758536291.884:    154  69  69
1758536291.884:    145  69  69
1758536291.884:    213  69  69
1758536291.884:    312  69  69
1758536291.884:    402  69  69
1758536291.884:    473  69  69
1758536291.884:    524  69  69
1758536291.884:    536  69  69
1758536291.884:    482  69  69
1758536291.884:    376  69  69
1758536291.884:    276  69  69
1758536291.884:    244  69  69
1758536291.884:    294  69  69
1758536291.884:    391  69  69
1758536291.884:    494  69  69
1758536291.884:    587  69  69
1758536291.884:    665  69  69
1758536291.884:    704  69  69
1758536291.884:    674  69  69
1758536291.884:    581  69  69
1758536291.884:    480  69  69
1758536291.884:    438  69  69
1758536291.884:    478  69  69
1758536291.884:    566  69  69
1758536291.884:    658  69  69
1758536291.884:    738  69  69
1758536291.884:    808  69  69
1758536291.884:    852  69  69
1758536291.884:    835  69  69
1758536291.979:    751  69  69
1758536291.979:    647  69  69
1758536291.979:    592  69  69
1758536291.979:    620  69  69
1758536291.979:    708  69  69
1758536291.979:    807  69  69
1758536291.979:    892  69  69
1758536291.979:    964  69  69
1758536291.979:   1008  69  69
1758536291.979:    995  69  69
1758536291.979:    911  69  69
1758536291.979:    799  69  69
1758536291.979:    728  69  69
1758536291.979:    739  69  69
1758536291.979:    817  69  69
1758536291.979:    913  69  69
1758536291.979:   1001  69  69
1758536291.979:   1078  69  69
1758536291.979:   1131  69  69
1758536291.979:   1130  69  69
1758536291.979:   1055  69  69
1758536291.979:    941  69  69
1758536291.979:    854  69  69
1758536291.979:    844  69  69
1758536291.979:    901  69  69
1758536291.979:    986  69  69
1758536291.979:   1067  69  69
1758536291.979:   1138  69  69
1758536291.979:   1186  69  69
1758536291.979:   1181  69  69
1758536291.979:   1103  69  69
1758536291.979:    984  69  69
1758536291.979:    888  69  69
1758536291.979:    865  69  69
1758536291.979:    910  69  69
1758536291.979:    983  69  69
1758536291.979:   1055  69  69
1758536291.979:   1119  69  69
1758536291.979:   1165  69  69
1758536291.979:   1161  69  69
1758536291.979:   1079  69  69
1758536291.979:    940  69  69
1758536291.979:    808  69  69
1758536291.979:    741  69  69
1758536291.979:    746  69  69
1758536292.011:    787  69  69
1758536292.011:    827  69  69
1758536292.011:    853  69  69
1758536292.011:    858  69  69
1758536292.011:    816  69  69
1758536292.011:    701  69  69
1758536292.011:    525  69  69
1758536292.011:    346  69  69
1758536292.011:    222  69  69
1758536292.011:    172  69  69
1758536292.011:    167  69  69
1758536292.011:    171  69  69
1758536292.011:    168  69  69
1758536292.011:    151  69  69
1758536292.011:     99  69  69
1758536292.073:    -16  69  69
1758536292.073:   -189  69  69
1758536292.073:   -368  69  69
1758536292.073:   -494  69  69
1758536292.073:   -543  69  69
1758536292.073:   -540  69  69
1758536292.073:   -523  69  69
1758536292.073:   -510  69  69
1758536292.073:   -507  69  69
1758536292.073:   -535  69  69
1758536292.073:   -623  69  69
1758536292.073:   -772  69  69
1758536292.073:   -934  69  69
1758536292.073:  -1042  69  69
1758536292.073:  -1065  69  69
1758536292.073:  -1027  69  69
1758536292.073:   -970  69  69
1758536292.073:   -914  69  69
1758536292.073:   -859  69  69
1758536292.073:   -824  69  69
1758536292.073:   -843  69  69
1758536292.073:   -936  69  69
1758536292.073:  -1064  69  69
1758536292.073:  -1154  69  69
1758536292.073:  -1160  69  69
1758536292.073:  -1095  69  69
1758536292.073:  -1003  69  69
1758536292.073:   -915  69  69
1758536292.073:   -834  69  69
1758536292.073:   -774  69  69
1758536292.073:   -767  69  69
1758536292.073:   -834  69  69
1758536292.073:   -946  69  69
1758536292.073:  -1035  69  69
1758536292.073:  -1047  69  69
1758536292.073:   -989  69  69
1758536292.073:   -901  69  69
1758536292.073:   -815  69  69
1758536292.073:   -733  69  69
1758536292.167:   -662  69  69
1758536292.167:   -633  69  69
1758536292.167:   -678  69  69
1758536292.167:   -780  69  69
1758536292.167:   -873  69  69
1758536292.167:   -894  69  69
1758536292.167:   -839  69  69
1758536292.167:   -748  69  69
1758536292.167:   -659  69  69
1758536292.167:   -581  69  69
1758536292.167:   -516  69  69
1758536292.167:   -487  69  69
1758536292.167:   -524  69  69
1758536292.167:   -621  69  69
1758536292.167:   -720  69  69
1758536292.167:   -756  69  69
1758536292.167:   -713  69  69
1758536292.167:   -625  69  69
1758536292.167:   -536  69  69
1758536292.167:   -461  69  69
1758536292.167:   -401  69  69
1758536292.167:   -370  69  69
1758536292.167:   -397  69  69
1758536292.167:   -484  69  69
1758536292.167:   -585  69  69
1758536292.167:   -639  69  69
1758536292.167:   -616  69  69
1758536292.167:   -538  69  69
1758536292.167:   -444  69  69
1758536292.167:   -358  69  69
1758536292.167:   -290  69  69
1758536292.167:   -260  69  69
1758536292.167:   -296  69  69
1758536292.167:   -396  69  69
1758536292.167:   -513  69  69
1758536292.167:   -583  69  69
1758536292.167:   -576  69  69
1758536292.167:   -512  69  69
1758536292.167:   -432  69  69
1758536292.245:   -356  69  69
1758536292.245:   -290  69  69
1758536292.245:   -251  69  69
1758536292.245:   -271  69  69
1758536292.245:   -359  69  69
1758536292.245:   -474  69  69
1758536292.245:   -553  69  69
1758536292.245:   -556  69  69
1758536292.245:   -497  69  69
1758536292.245:   -416  69  69
1758536292.245:   -336  69  69
1758536292.245:   -263  69  69
1758536292.245:   -212  69  69
1758536292.245:   -213  69  69
1758536292.245:   -285  69  69
1758536292.245:   -395  69  69
1758536292.245:   -481  69  69
1758536292.245:   -496  69  69
1758536292.245:   -443  69  69
1758536292.245:   -361  69  69
1758536292.245:   -279  69  69
1758536292.245:   -207  69  69
1758536292.245:   -158  69  69
1758536292.245:   -156  69  69
1758536292.245:   -223  69  69
1758536292.245:   -335  69  69
1758536292.245:   -432  69  69
1758536292.245:   -464  69  69
1758536292.245:   -425  69  69
1758536292.245:   -349  69  69
1758536292.245:   -271  69  69
1758536292.245:   -204  69  69
1758536292.245:   -155  69  69
1758536292.245:   -147  69  69
1758536292.245:   -204  69  69
1758536292.245:   -313  69  69
1758536292.245:   -416  69  69
1758536292.245:   -455  69  69
1758536292.245:   -416  69  69
1758536292.387:   -334  69  69
1758536292.387:   -249  69  69
1758536292.387:   -176  69  69
1758536292.387:   -116  69  69
1758536292.387:    -84  69  69
1758536292.387:   -113  69  69
1758536292.387:   -204  69  69
1758536292.387:   -309  69  69
1758536292.387:   -363  69  69
1758536292.387:   -336  69  69
1758536292.387:   -257  69  69
1758536292.387:   -171  69  69
1758536292.387:    -98  69  69
1758536292.387:    -40  69  69
1758536292.387:    -12  69  69
1758536292.387:    -44  69  69
1758536292.387:   -143  69  69
1758536292.387:   -261  69  69
1758536292.387:   -328  69  69
1758536292.387:   -311  69  69
1758536292.387:   -238  69  69
1758536292.387:   -159  69  69
1758536292.387:    -95  69  69
1758536292.387:    -43  69  69
1758536292.387:    -12  69  69
1758536292.387:    -34  69  69
1758536292.387:   -127  69  69
1758536292.387:   -252  69  69
1758536292.387:   -335  69  69
1758536292.387:   -335  69  69
1758536292.387:   -270  69  69
1758536292.387:   -188  69  69
1758536292.387:   -118  69  69
1758536292.387:    -59  69  69
1758536292.387:    -17  69  69
1758536292.387:    -25  69  69
1758536292.387:   -104  69  69
1758536292.387:   -220  69  69
1758536292.387:   -304  69  69
1758536292.387:   -308  69  69
1758536292.387:   -247  69  69
1758536292.387:   -167  69  69
1758536292.387:    -99  69  69
1758536292.387:    -40  69  69
1758536292.387:      7  69  69
1758536292.387:     12  69  69
1758536292.387:    -53  69  69
1758536292.387:   -164  69  69
1758536292.387:   -252  69  69
1758536292.387:   -260  69  69
1758536292.387:   -186  69  69
1758536292.387:    -75  69  69
1758536292.387:     34  69  69
1758536292.387:    133  69  69
1758536292.387:    216  69  69
1758536292.387:    257  69  69
1758536292.387:    227  69  69
1758536292.387:    142  69  69
1758536292.387:     63  69  69
1758536292.387:     50  69  69
1758536292.387:    110  69  69
1758536292.387:    210  69  69
1758536292.387:    315  69  69
1758536292.387:    420  69  69
1758536292.418:    518  69  69
1758536292.418:    583  69  69
1758536292.418:    583  69  69
1758536292.418:    528  69  69
1758536292.418:    474  69  69
1758536292.418:    476  69  69
1758536292.482:    541  69  69
1758536292.513:    627  69  69
1758536292.513:    698  69  69
1758536292.513:    748  69  69
1758536292.513:    782  69  69
1758536292.513:    782  69  69
1758536292.513:    716  69  69
1758536292.513:    585  69  69
1758536292.513:    446  69  69
1758536292.513:    363  69  69
1758536292.513:    361  69  69
1758536292.513:    408  69  69
1758536292.513:    454  69  69
1758536292.513:    476  69  69
1758536292.513:    471  69  69
1758536292.513:    428  69  69
1758536292.513:    320  69  69
1758536292.513:    139  69  69
1758536292.513:    -71  69  69
1758536292.513:   -239  69  69
1758536292.513:   -319  69  69
1758536292.513:   -326  69  69
1758536292.513:   -303  69  69
1758536292.513:   -281  69  69
1758536292.513:   -265  69  69
1758536292.513:   -267  69  69
1758536292.513:   -312  69  69
1758536292.513:   -417  69  69
1758536292.513:   -556  69  69
1758536292.513:   -667  69  69
1758536292.513:   -702  69  69
1758536292.513:   -671  69  69
1758536292.513:   -617  69  69
1758536292.513:   -570  69  69
1758536292.513:   -533  69  69
1758536292.513:   -511  69  69
1758536292.513:   -529  69  69
1758536292.513:   -610  69  69
1758536292.513:   -728  69  69
1758536292.513:   -818  69  69
1758536292.513:   -831  69  69
1758536292.513:   -774  69  69
1758536292.513:   -692  69  69
1758536292.513:   -617  69  69
1758536292.513:   -552  69  69
1758536292.513:   -505  69  69
1758536292.513:   -504  69  69
1758536292.513:   -570  69  69
1758536292.513:   -673  69  69
1758536292.513:   -744  69  69
1758536292.513:   -728  69  69
1758536292.513:   -632  69  69
1758536292.513:   -501  69  69
1758536292.513:   -378  69  69
1758536292.513:   -278  69  69
1758536292.513:   -198  69  69
1758536292.513:   -145  69  69
1758536292.513:   -141  69  69
1758536292.513:   -203  69  69
1758536292.513:   -304  69  69
1758536292.513:   -372  69  69
1758536292.513:   -327  69  69
1758536292.513:   -148  69  69
1758536292.513:     99  69  69
1758536292.544:    342  69  69
1758536292.544:    589  69  69
1758536292.544:    942  69  69
1758536292.544:   1485  69  69
1758536292.544:   2184  69  69
1758536292.544:   2912  69  69
1758536292.544:   3585  69  69
1758536292.544:   4232  69  69
1758536292.544:   4910  69  69
1758536292.544:   5571  69  69
1758536292.544:   6029  69  69
1758536292.544:   6094  69  69
1758536292.544:   5708  69  69
1758536292.544:   4980  69  69
1758536292.544:   4086  69  69
1758536292.544:   3165  69  69
1758536292.544:   2283  69  69
1758536292.544:   1458  69  69
1758536292.544:    706  69  69
1758536292.544:     64  69  69
1758536292.544:   -418  69  69
1758536292.544:   -724  69  69
1758536292.544:   -908  69  69
1758536292.591:  -1075  71  69
1758536292.591:  -1305  71  69
1758536292.591:  -1589  71  69
1758536292.591:  -1850  71  69
1758536292.591:  -2016  71  69
1758536292.591:  -2080  71  69
1758536292.591:  -2083  71  69
1758536292.591:  -2049  71  69
1758536292.591:  -1969  71  69
1758536292.591:  -1844  71  69
1758536292.591:  -1706  71  69
1758536292.591:  -1604  71  69
1758536292.591:  -1544  71  69
1758536292.591:  -1484  71  69
1758536292.591:  -1379  71  69
1758536292.591:  -1230  71  69
1758536292.591:  -1078  71  69
1758536292.591:   -956  71  69
1758536292.591:   -855  71  69
1758536292.591:   -768  71  69
1758536292.591:   -717  71  69
1758536292.591:   -739  71  69
1758536292.591:   -823  71  69
1758536292.591:   -904  71  69
1758536292.591:   -921  71  69
1758536292.623:   -882  71  69
1758536292.623:   -839  71  69
1758536292.623:   -822  71  69
1758536292.623:   -809  71  69
1758536292.623:   -780  71  69
1758536292.623:   -774  71  69
1758536292.623:   -850  71  69
1758536292.655:   -996  71  69
1758536292.655:  -1109  71  69
1758536292.655:  -1084  71  69
1758536292.655:   -923  71  69
1758536292.655:   -715  71  69
1758536292.655:   -532  71  69
1758536292.655:   -368  71  69
1758536292.655:   -185  71  69
1758536292.655:     -7  71  69
1758536292.655:     86  71  69
1758536292.655:     49  71  69
1758536292.655:    -61  71  69
1758536292.655:   -141  71  69
1758536292.655:   -140  71  69
1758536292.655:    -91  71  69
1758536292.655:    -45  71  69
1758536292.655:     -5  71  69
1758536292.655:     57  71  69
1758536292.655:    130  71  69
1758536292.655:    155  71  69
1758536292.655:     99  71  69
1758536292.687:      4  71  69
1758536292.687:    -44  71  69
1758536292.687:     -5  71  69
1758536292.687:     85  71  69
1758536292.687:    168  71  69
1758536292.687:    226  71  69
1758536292.687:    277  71  69
1758536292.687:    315  71  69
1758536292.687:    301  71  69
1758536292.687:    210  71  69
1758536292.687:     83  71  69
1758536292.687:      3  71  69
1758536292.687:     18  71  69
1758536292.687:    103  71  69
1758536292.687:    201  71  69
1758536292.687:    283  71  69
1758536292.687:    352  71  69
1758536292.687:    403  71  69
1758536292.687:    414  71  69
1758536292.687:    369  71  69
1758536292.687:    295  71  69
1758536292.687:    245  71  69
1758536292.687:    256  71  69
1758536292.687:    322  71  69
1758536292.687:    410  71  69
1758536292.687:    488  71  69
1758536292.733:    538  71  69
1758536292.733:    545  71  69
1758536292.733:    489  71  69
1758536292.733:    350  71  69
1758536292.733:    138  71  69
1758536292.733:    -92  71  69
1758536292.733:   -248  71  69
1758536292.733:   -253  71  69
1758536292.733:   -101  71  69
1758536292.733:    134  71  69
1758536292.733:    355  71  69
1758536292.733:    507  71  69
1758536292.733:    601  71  69
1758536292.733:    678  71  69
1758536292.733:    757  71  69
1758536292.733:    822  71  69
1758536292.765:    853  71  69
1758536292.765:    850  71  69
1758536292.765:    839  71  69
1758536292.765:    843  71  69
1758536292.765:    862  71  69
1758536292.765:    869  71  69
1758536292.765:    836  71  69
1758536292.765:    759  71  69
1758536292.765:    669  71  69
1758536292.765:    612  71  69
1758536292.765:    613  71  69
1758536292.765:    668  71  69
1758536292.765:    754  71  69
1758536292.765:    857  71  69
1758536292.765:    955  71  69
1758536292.765:   1021  71  69
1758536292.765:   1015  71  69
1758536292.765:    925  71  69
1758536292.850:    794  71  69
1758536292.876:    696  71  69
1758536292.876:    682  71  69
1758536292.876:    751  71  69
1758536292.876:    863  71  69
1758536292.876:    983  71  69
1758536292.876:   1093  71  69
1758536292.876:   1183  71  69
1758536292.876:   1226  71  69
1758536292.876:   1193  71  69
1758536292.876:   1088  71  69
1758536292.876:    970  71  69
1758536292.876:    907  71  69
1758536292.876:    931  71  69
1758536292.876:   1009  71  69
1758536292.876:   1082  71  69
1758536292.876:   1124  71  69
1758536292.876:   1151  71  69
1758536292.876:   1182  71  69
1758536292.876:   1200  71  69
1758536292.876:   1165  71  69
1758536292.876:   1075  71  69
1758536292.876:    978  71  69
1758536292.876:    939  71  69
1758536292.876:    981  71  69
1758536292.876:   1069  71  69
1758536292.876:   1155  71  69
1758536292.876:   1212  71  69
1758536292.876:   1235  71  69
1758536292.876:   1218  71  69
1758536292.876:   1157  71  69
1758536292.876:   1067  71  69
1758536292.876:    992  71  69
1758536292.876:    971  71  69
1758536292.876:   1015  71  69
1758536292.876:   1092  71  69
1758536292.876:   1158  71  69
1758536292.876:   1187  71  69
1758536292.876:   1173  71  69
1758536292.876:   1110  71  69
1758536292.876:    985  71  69
1758536292.876:    800  71  69
1758536292.876:    590  71  69
1758536292.876:    418  71  69
1758536292.876:    339  71  69
1758536292.876:    365  71  69
1758536292.876:    453  71  69
1758536292.876:    540  71  69
1758536292.876:    587  71  69
1758536292.876:    584  71  69
1758536292.907:    538  71  69
1758536292.907:    452  71  69
1758536292.907:    337  71  69
1758536292.907:    219  71  69
1758536292.907:    138  71  69
1758536292.907:    109  71  69
1758536292.907:    114  71  69
1758536292.907:    111  71  69
1758536292.907:     74  71  69
1758536292.907:      2  71  69
1758536292.907:    -89  71  69
1758536292.907:   -186  71  69
1758536292.907:   -275  71  69
1758536292.907:   -338  71  69
1758536292.907:   -359  71  69
1758536292.907:   -338  71  69
1758536292.907:   -293  71  69
1758536292.907:   -252  71  69
1758536292.907:   -234  71  69
1758536292.907:   -252  71  69
1758536292.907:   -321  71  69
1758536292.907:   -445  71  69
1758536292.907:   -593  71  69
1758536292.907:   -715  71  69
1758536293.001:   -767  71  69
1758536293.001:   -743  71  69
1758536293.001:   -675  71  69
1758536293.001:   -606  71  69
1758536293.001:   -562  71  69
1758536293.001:   -555  71  69
1758536293.001:   -587  71  69
1758536293.001:   -658  71  69
1758536293.001:   -744  71  69
1758536293.001:   -804  71  69
1758536293.001:   -804  71  69
1758536293.001:   -738  71  69
1758536293.001:   -639  71  69
1758536293.001:   -554  71  69
1758536293.001:   -507  71  69
1758536293.001:   -500  71  69
1758536293.001:   -526  71  69
1758536293.001:   -586  71  69
1758536293.001:   -669  71  69
1758536293.001:   -747  71  69
1758536293.001:   -772  71  69
1758536293.001:   -722  71  69
1758536293.001:   -619  71  69
1758536293.001:   -513  71  69
1758536293.001:   -444  71  69
1758536293.001:   -425  71  69
1758536293.001:   -450  71  69
1758536293.001:   -514  71  69
1758536293.001:   -608  71  69
1758536293.001:   -696  71  69
1758536293.001:   -727  71  69
1758536293.001:   -679  71  69
1758536293.001:   -573  71  69
1758536293.001:   -458  71  69
1758536293.001:   -365  71  69
1758536293.001:   -299  71  69
1758536293.001:   -262  71  69
1758536293.001:   -264  71  69
1758536293.001:   -309  71  69
1758536293.033:   -363  71  69
1758536293.033:   -377  71  69
1758536293.033:   -334  71  69
1758536293.033:   -262  71  69
1758536293.033:   -198  71  69
1758536293.033:   -143  71  69
1758536293.033:    -80  71  69
1758536293.033:    -22  71  69
1758536293.033:    -19  71  69
1758536293.033:    -88  71  69
1758536293.033:   -175  71  69
1758536293.033:   -191  71  69
1758536293.033:   -108  71  69
1758536293.033:     18  71  69
1758536293.033:    106  71  69
1758536293.033:    137  71  69
1758536293.033:    144  71  69
1758536293.033:    144  71  69
1758536293.033:    108  71  69
1758536293.033:      7  71  69
1758536293.033:   -127  71  69
1758536293.033:   -221  71  69
1758536293.175:   -230  71  69
1758536293.175:   -176  71  69
1758536293.175:   -113  71  69
1758536293.175:    -80  71  69
1758536293.175:    -81  71  69
1758536293.175:   -115  71  69
1758536293.175:   -192  71  69
1758536293.175:   -308  71  69
1758536293.175:   -433  71  69
1758536293.175:   -526  71  69
1758536293.175:   -560  71  69
1758536293.175:   -543  71  69
1758536293.175:   -498  71  69
1758536293.175:   -451  71  69
1758536293.175:   -418  71  69
1758536293.175:   -417  71  69
1758536293.175:   -464  71  69
1758536293.175:   -564  71  69
1758536293.175:   -689  71  69
1758536293.175:   -793  71  69
1758536293.175:   -834  71  69
1758536293.175:   -806  71  69
1758536293.175:   -735  71  69
1758536293.175:   -660  71  69
1758536293.175:   -605  71  69
1758536293.175:   -572  71  69
1758536293.175:   -567  71  69
1758536293.175:   -604  71  69
1758536293.175:   -684  71  69
1758536293.175:   -776  71  69
1758536293.175:   -827  71  69
1758536293.175:   -804  71  69
1758536293.175:   -721  71  69
1758536293.175:   -629  71  69
1758536293.175:   -565  71  69
1758536293.175:   -540  71  69
1758536293.175:   -547  71  69
1758536293.175:   -588  71  69
1758536293.175:   -667  71  69
1758536293.175:   -764  71  69
1758536293.175:   -834  71  69
1758536293.175:   -840  71  69
1758536293.175:   -786  71  69
1758536293.175:   -715  71  69
1758536293.175:   -673  71  69
1758536293.175:   -672  71  69
1758536293.175:   -702  71  69
1758536293.175:   -754  71  69
1758536293.175:   -828  71  69
1758536293.175:   -910  71  69
1758536293.175:   -966  71  69
1758536293.175:   -961  71  69
1758536293.175:   -900  71  69
1758536293.175:   -821  71  69
1758536293.175:   -758  71  69
1758536293.175:   -717  71  69
1758536293.175:   -697  71  69
1758536293.175:   -711  71  69
1758536293.175:   -778  71  69
1758536293.175:   -884  71  69
1758536293.175:   -972  71  69
1758536293.175:   -988  71  69
1758536293.175:   -931  71  69
1758536293.175:   -847  71  69
1758536293.206:   -780  71  69
1758536293.206:   -742  71  69
1758536293.206:   -725  71  69
1758536293.206:   -736  71  69
1758536293.206:   -783  71  69
1758536293.206:   -851  71  69
1758536293.206:   -892  71  69
1758536293.206:   -867  71  69
1758536293.206:   -782  71  69
1758536293.332:   -675  71  69
1758536293.332:   -579  71  69
1758536293.332:   -500  71  69
1758536293.332:   -446  71  69
1758536293.332:   -435  71  69
1758536293.332:   -485  71  69
1758536293.332:   -570  71  69
1758536293.332:   -634  71  69
1758536293.332:   -626  71  69
1758536293.332:   -551  71  69
1758536293.332:   -450  71  69
1758536293.332:   -356  71  69
1758536293.332:   -272  71  69
1758536293.332:   -197  71  69
1758536293.332:   -154  71  69
1758536293.332:   -174  71  69
1758536293.332:   -251  71  69
1758536293.332:   -334  71  69
1758536293.332:   -370  71  69
1758536293.332:   -346  71  69
1758536293.332:   -295  71  69
1758536293.332:   -249  71  69
1758536293.332:   -215  71  69
1758536293.332:   -188  71  69
1758536293.332:   -186  71  69
1758536293.332:   -234  71  69
1758536293.332:   -337  71  69
1758536293.332:   -455  71  69
1758536293.332:   -539  71  69
1758536293.332:   -571  71  69
1758536293.332:   -573  71  69
1758536293.332:   -578  71  69
1758536293.332:   -605  71  69
1758536293.332:   -656  71  69
1758536293.332:   -734  71  69
1758536293.332:   -841  71  69
1758536293.332:   -966  71  69
1758536293.332:  -1077  71  69
1758536293.332:  -1150  71  69
1758536293.332:  -1177  71  69
1758536293.332:  -1171  71  69
1758536293.332:  -1140  71  69
1758536293.332:  -1094  71  69
1758536293.332:  -1055  71  69
1758536293.332:  -1058  71  69
1758536293.332:  -1117  71  69
1758536293.332:  -1210  71  69
1758536293.332:  -1295  71  69
1758536293.332:  -1350  71  69
1758536293.332:  -1372  71  69
1758536293.332:  -1352  71  69
1758536293.332:  -1280  71  69
1758536293.332:  -1189  71  69
1758536293.332:  -1171  71  69
1758536293.332:  -1305  71  69
1758536293.332:  -1545  71  69
1758536293.332:  -1717  71  69
1758536293.332:  -1650  71  69
1758536293.332:  -1336  71  69
1758536293.332:   -938  71  69
1758536293.332:   -649  71  69
1758536293.332:   -553  71  69
1758536293.332:   -613  71  69
1758536293.332:   -760  71  69
1758536293.364:   -963  71  69
1758536293.364:  -1207  71  69
1758536293.364:  -1454  71  69
1758536293.364:  -1626  71  69
1758536293.364:  -1661  71  69
1758536293.364:  -1544  71  69
1758536293.364:  -1309  71  69
1758536293.364:  -1021  71  69
1758536293.364:   -758  71  69
1758536293.364:   -598  71  69
1758536293.364:   -591  71  69
1758536293.364:   -726  71  69
1758536293.364:   -921  71  69
1758536293.364:  -1050  71  69
1758536293.364:   -999  71  69
1758536293.364:   -718  71  69
1758536293.364:   -233  71  69
1758536293.364:    373  71  69
1758536293.364:   1006  71  69
1758536293.364:   1597  71  69
1758536293.364:   2118  71  69
1758536293.364:   2584  71  69
1758536293.364:   3037  71  69
1758536293.364:   3519  71  69
1758536293.364:   4023  71  69
1758536293.364:   4474  71  69
1758536293.364:   4750  71  69
1758536293.364:   4746  71  69
1758536293.364:   4441  71  69
1758536293.364:   3902  71  69
1758536293.364:   3233  71  69
1758536293.364:   2502  71  69
1758536293.364:   1727  71  69
1758536293.364:    911  71  69
1758536293.364:     97  71  69
1758536293.364:   -634  71  69
1758536293.519:  -1195  72  70
1758536293.519:  -1559  72  70
1758536293.519:  -1761  72  70
1758536293.519:  -1869  72  70
1758536293.519:  -1946  72  70
1758536293.519:  -2028  72  70
1758536293.519:  -2139  72  70
1758536293.519:  -2289  72  70
1758536293.519:  -2469  72  70
1758536293.519:  -2653  72  70
1758536293.519:  -2804  72  70
1758536293.519:  -2889  72  70
1758536293.519:  -2883  72  70
1758536293.519:  -2768  72  70
1758536293.519:  -2538  72  70
1758536293.519:  -2232  72  70
1758536293.519:  -1922  72  70
1758536293.519:  -1694  72  70
1758536293.519:  -1595  72  70
1758536293.519:  -1614  72  70
1758536293.519:  -1705  72  70
1758536293.519:  -1816  72  70
1758536293.519:  -1903  72  70
1758536293.519:  -1925  72  70
1758536293.519:  -1844  72  70
1758536293.519:  -1656  72  70
1758536293.519:  -1411  72  70
1758536293.519:  -1195  72  70
1758536293.519:  -1080  72  70
1758536293.519:  -1077  72  70
1758536293.519:  -1146  72  70
1758536293.519:  -1233  72  70
1758536293.519:  -1293  72  70
1758536293.519:  -1300  72  70
1758536293.519:  -1245  72  70
1758536293.519:  -1145  72  70
1758536293.519:  -1039  72  70
1758536293.519:   -969  72  70
1758536293.519:   -942  72  70
1758536293.519:   -930  72  70
1758536293.519:   -903  72  70
1758536293.519:   -863  72  70
1758536293.519:   -839  72  70
1758536293.519:   -850  72  70
1758536293.519:   -885  72  70
1758536293.519:   -922  72  70
1758536293.519:   -964  72  70
1758536293.519:  -1023  72  70
1758536293.519:  -1080  72  70
1758536293.519:  -1080  72  70
1758536293.519:   -972  72  70
1758536293.519:   -771  72  70
1758536293.519:   -558  72  70
1758536293.519:   -426  72  70
1758536293.519:   -412  72  70
1758536293.519:   -483  72  70
1758536293.519:   -583  72  70
1758536293.519:   -679  72  70
1758536293.519:   -766  72  70
1758536293.519:   -835  72  70
1758536293.519:   -846  72  70
1758536293.519:   -752  72  70
1758536293.519:   -560  72  70
1758536293.519:   -356  72  70
1758536293.550:   -270  72  70
1758536293.550:   -381  72  70
1758536293.550:   -651  72  70
1758536293.550:   -932  72  70
1758536293.550:  -1071  72  70
1758536293.550:   -996  72  70
1758536293.582:   -747  72  70
1758536293.582:   -429  72  70
1758536293.582:   -150  72  70
1758536293.582:     17  72  70
1758536293.582:     43  72  70
1758536293.582:    -62  72  70
1758536293.582:   -252  72  70
1758536293.582:   -465  72  70
1758536293.582:   -648  72  70
1758536293.582:   -759  72  70
1758536293.582:   -770  72  70
1758536293.582:   -657  72  70
1758536293.582:   -431  72  70
1758536293.582:   -154  72  70
1758536293.582:     73  72  70
1758536293.582:    162  72  70
1758536293.582:     97  72  70
1758536293.582:    -73  72  70
1758536293.582:   -274  72  70
1758536293.582:   -451  72  70
1758536293.582:   -571  72  70
1758536293.582:   -617  72  70
1758536293.582:   -573  72  70
1758536293.582:   -449  72  70
1758536293.582:   -285  72  70
1758536293.582:   -132  72  70
1758536293.582:    -19  72  70
1758536293.582:     48  72  70
1758536293.582:     78  72  70
1758536293.582:     75  72  70
1758536293.582:     40  72  70
1758536293.582:    -13  72  70
1758536293.582:    -59  72  70
1758536293.582:    -82  72  70
1758536293.582:    -72  72  70
1758536293.582:    -20  72  70
1758536293.582:     86  72  70
1758536293.582:    238  72  70
1758536293.582:    389  72  70
1758536293.635:    474  72  70
